filename,patient,rmse,mav,var,energy,mnf,mdf,zc,fr,mav_arr_0,mav_arr_1,mav_arr_2,mav_arr_3,std_0,std_1,std_2,std_3,ID,Task,File_number,STAI_Total,Fatigue,Stress,Mental_Demand,Physical_Demand,Frustration,NASA_Total,PSS,NARS_S1,NARS_S2,NARS_S3,Age,Sex,Experience
05-06-07_15-02-41_manual.txt,5,0.5178236687311616,0.3639254788959952,0.2681502902412078,8044.240556945992,196.79314422372585,430.3333333333333,9982,1.7333088469987092,0.1158487441963895,0.5458310363280462,0.5579492469313203,0.1904925404237992,0.2001055783064236,0.9460642945064074,0.970831757869703,0.3285310783650475,5.0,MANUAL,1,31.0,1.0,6.0,4.0,1.0,2.0,44,14,9,11,12,29.0,1,2.0
05-06-07_15-02-41_manual.txt,5,0.3246991616818259,0.2368816147315621,0.1054330600322149,3162.886367906416,201.5714462526524,428.5,10061,1.6608034239930658,0.0645786849065471,0.3511176916566192,0.3623936054414334,0.1246710072343887,0.107891552581493,0.58872387326136,0.6133188431621173,0.2086967491012403,5.0,MANUAL,1,31.0,1.0,6.0,4.0,1.0,2.0,44,14,9,11,12,29.0,1,2.0
05-06-07_15-02-41_manual.txt,5,0.2637346789141852,0.1873291519974433,0.0695582994719507,2086.679425859052,205.573142664154,424.8666666666667,10352,1.6335071980343507,0.0496385320345647,0.2831054548736053,0.2791758116872101,0.1043208739253633,0.0862224524475557,0.4856163453486792,0.4835573403830742,0.1765380960062941,5.0,MANUAL,1,31.0,1.0,6.0,4.0,1.0,2.0,44,14,9,11,12,29.0,1,2.0
05-06-07_15-02-41_manual.txt,5,0.3389169914364739,0.2415419058103966,0.1148685560362187,3445.9418125305274,203.8894676831665,426.3666666666667,10468,1.5859506217308197,0.0651488017093289,0.3505678721795813,0.36543062716706,0.1350024643124357,0.1116862240357402,0.6143686438398824,0.6292211025532032,0.2256019264446978,5.0,MANUAL,1,31.0,1.0,6.0,4.0,1.0,2.0,44,14,9,11,12,29.0,1,2.0
05-06-07_15-02-41_manual.txt,5,0.2318981881349718,0.1741898127322189,0.0537785622790254,1613.3030898084835,223.8738788922345,411.6333333333333,11862,1.417377026080794,0.0386547755967155,0.2071588038761887,0.2539883778651109,0.1206376479797458,0.0664112131416878,0.3697420806249497,0.4260764986001965,0.1959571129763556,5.0,MANUAL,1,31.0,1.0,6.0,4.0,1.0,2.0,44,14,9,11,12,29.0,1,2.0
05-06-07_15-02-41_manual.txt,5,0.2537723053395629,0.1887013459731849,0.0644025297083466,1932.0114887206903,250.38740894082105,389.1333333333333,15122,1.21955584889098,0.0360878506844601,0.2106921908585422,0.2338985229214296,0.1668404948703848,0.0665667590413434,0.400740412763004,0.4084324735520516,0.2644916552309825,5.0,MANUAL,1,31.0,1.0,6.0,4.0,1.0,2.0,44,14,9,11,12,29.0,1,2.0
05-06-07_15-02-41_manual.txt,5,0.2418569548342467,0.1898159507660835,0.0584967364929112,1754.8435980508457,269.512377505382,379.3,17095,1.0501111502681617,0.0334047297662436,0.1923032581967237,0.2106276821588157,0.1950544652546828,0.0568348846410809,0.3422395420740262,0.3592866773209084,0.3035485968534783,5.0,MANUAL,1,31.0,1.0,6.0,4.0,1.0,2.0,44,14,9,11,12,29.0,1,2.0
05-06-07_16-25-36_manual.txt,5,0.3546494544240736,0.2509533174449941,0.1257804282042331,3773.287065698792,215.3652761555817,416.3666666666667,12197,1.447811793630296,0.0636731164002885,0.3336961387157949,0.369962508192641,0.1643164900551084,0.1130680401383028,0.5929310690656627,0.6513921342115793,0.2699762462756664,5.0,MANUAL,14,39.0,3.0,10.0,3.0,2.0,3.0,25,14,9,11,12,29.0,1,2.0
05-06-07_16-25-36_manual.txt,5,0.3783651407336301,0.2638227241845573,0.1431649518874426,4294.8053916713925,205.36167719294488,425.8,10507,1.6220869796070054,0.0744301068580601,0.3929564399496962,0.3947772997202249,0.1435067283665719,0.1283043685418299,0.703020966423786,0.693251769978577,0.2452466412392007,5.0,MANUAL,14,39.0,3.0,10.0,3.0,2.0,3.0,25,14,9,11,12,29.0,1,2.0
05-06-07_16-25-36_manual.txt,5,0.3542685644170008,0.2546117450299194,0.125510399414063,3765.1864720224794,208.0887314049116,425.2,10540,1.6386843992781768,0.0722530675375597,0.3863619973494331,0.377960149205251,0.140950970876234,0.1238578543485818,0.6664410569062442,0.645524298646923,0.2360978091738771,5.0,MANUAL,14,39.0,3.0,10.0,3.0,2.0,3.0,25,14,9,11,12,29.0,1,2.0
05-06-07_16-25-36_manual.txt,5,0.2480125786359649,0.1727453646459553,0.061512289571313,1845.3071748498205,231.4127003441645,406.3666666666667,12629,1.5299090430451356,0.039307379461291,0.2436796273491163,0.2377165795407423,0.1189998255172838,0.070594506356253,0.4480238950547569,0.4238866777604926,0.2009083800656973,5.0,MANUAL,14,39.0,3.0,10.0,3.0,2.0,3.0,25,14,9,11,12,29.0,1,2.0
05-06-07_16-25-36_manual.txt,5,0.2806658006511282,0.1843231048739093,0.0787759175190561,2363.198749654165,229.29566954069745,413.4666666666666,12676,1.6123035114066364,0.0410211606319585,0.2650914109247502,0.2513741197914883,0.1233297643702353,0.07416593434068,0.5171514325053923,0.4679961464832138,0.2100093241398212,5.0,MANUAL,14,39.0,3.0,10.0,3.0,2.0,3.0,25,14,9,11,12,29.0,1,2.0
05-06-07_16-25-36_manual.txt,5,0.2455797708278515,0.1680339019221071,0.0603114342210007,1809.2827151958015,230.0865792533246,402.5333333333333,13541,1.3821757252008522,0.0353937452095739,0.1823761079442566,0.2298600133147293,0.1305799380546227,0.0711828829462742,0.3853420142832531,0.4190494315813047,0.2153400502623518,5.0,MANUAL,14,39.0,3.0,10.0,3.0,2.0,3.0,25,14,9,11,12,29.0,1,2.0
05-06-07_16-20-43_manual.txt,5,0.3379537392786966,0.2471573349515964,0.1142165371103569,3426.381896773598,216.82559567012345,413.4666666666666,12082,1.4325849401096007,0.0620380269265253,0.3318575353946283,0.3604457241060093,0.1650950851470932,0.1098518825113765,0.5966281286525181,0.6160863324419682,0.2660299613964278,5.0,MANUAL,13,35.0,2.0,7.0,2.0,3.0,2.0,22,14,9,11,12,29.0,1,2.0
05-06-07_16-20-43_manual.txt,5,0.2756130551556935,0.2022942882124466,0.0759650883418667,2278.876685167661,243.78761503268692,395.0,14864,1.2939265893873808,0.041693284487741,0.2586081524282659,0.25615248368423,0.1659273578363463,0.0739918794540728,0.456112887868964,0.4584464513469987,0.262336527128292,5.0,MANUAL,13,35.0,2.0,7.0,2.0,3.0,2.0,22,14,9,11,12,29.0,1,2.0
05-06-07_16-20-43_manual.txt,5,0.3210310991962983,0.2200846391424719,0.1030644021312546,3091.828999535507,225.50441007585516,407.3666666666667,14161,1.392232352898731,0.0498890761788245,0.2882110380689002,0.2873449546845261,0.1684120803764613,0.0942442679459694,0.56875791021287,0.5298929503006895,0.2704266657954456,5.0,MANUAL,13,35.0,2.0,7.0,2.0,3.0,2.0,22,14,9,11,12,29.0,1,2.0
05-06-07_16-20-43_manual.txt,5,0.3216556780881892,0.2178935912142095,0.1034658241071763,3103.871257391183,223.88828788784303,409.6333333333333,13474,1.4101282234103545,0.0475624615248354,0.2872769924050448,0.2974864751555374,0.1591512030564371,0.083809731263284,0.5579520673340703,0.5495463111173726,0.2588457094450245,5.0,MANUAL,13,35.0,2.0,7.0,2.0,3.0,2.0,22,14,9,11,12,29.0,1,2.0
05-06-07_16-20-43_manual.txt,5,0.3868631973691546,0.2012381226288659,0.1496681224160993,4489.894004360564,231.9874504423602,406.9,16563,1.5290124049771592,0.0429758802128487,0.2373956431852675,0.2454842576597931,0.1715759694643005,0.1214610578159222,0.6226345666561048,0.6037538147246242,0.300708253748183,5.0,MANUAL,13,35.0,2.0,7.0,2.0,3.0,2.0,22,14,9,11,12,29.0,1,2.0
05-06-07_16-20-43_manual.txt,5,0.1459000826365468,0.1213893256815354,0.0212875436981411,638.6050234005357,277.2179456264035,385.8666666666667,16207,1.052399677585248,0.0183056564364266,0.0687799281618593,0.138632914950212,0.126347883141033,0.0310028331414961,0.1174101245807823,0.2267203087939134,0.2003106423456439,5.0,MANUAL,13,35.0,2.0,7.0,2.0,3.0,2.0,22,14,9,11,12,29.0,1,2.0
05-06-07_16-11-42_manual.txt,5,0.2647580052441098,0.1868251100201952,0.0700991379787727,2102.9040402252026,204.80804862525451,424.23333333333335,10905,1.567384097584133,0.0498708906476879,0.2655749139947829,0.2806573122200544,0.1093297143962886,0.0873853962353588,0.4877106504890629,0.4855514757367334,0.1821558703437152,5.0,MANUAL,11,29.0,1.0,6.0,2.0,2.0,1.0,3,14,9,11,12,29.0,1,2.0
05-06-07_16-11-42_manual.txt,5,0.2245118745284035,0.1642702615733065,0.0504072620463258,1512.1674541277282,225.0843583405583,408.5,12663,1.3996760284520136,0.0375621871074766,0.2164238146997845,0.2288088361090846,0.1171042241117971,0.0653369728508538,0.3896418765460778,0.3944894415880857,0.1890007983576601,5.0,MANUAL,11,29.0,1.0,6.0,2.0,2.0,1.0,3,14,9,11,12,29.0,1,2.0
05-06-07_16-11-42_manual.txt,5,0.2707567403840003,0.1893376666727746,0.0733116561852417,2199.276373901068,215.6727073764202,416.9333333333333,12356,1.4830375337927877,0.043455616881025,0.2622145003254432,0.2679354952463455,0.1269869347831901,0.0760333478523039,0.5001903165398414,0.4744155528441855,0.207293386023274,5.0,MANUAL,11,29.0,1.0,6.0,2.0,2.0,1.0,3,14,9,11,12,29.0,1,2.0
05-06-07_16-11-42_manual.txt,5,0.2514375495495519,0.1835955281800165,0.0632229487551085,1896.6252397045016,221.84793486436428,411.9333333333333,12428,1.3946160097889264,0.0407953294552699,0.2490230041054733,0.2590018413282767,0.1278614204325125,0.0700466645209868,0.4493257118074757,0.4403002385638946,0.2066488016236164,5.0,MANUAL,11,29.0,1.0,6.0,2.0,2.0,1.0,3,14,9,11,12,29.0,1,2.0
05-06-07_16-11-42_manual.txt,5,0.3120194740035866,0.1649854816226011,0.0973593974707239,2920.6845647242462,226.14154116079828,410.1,17525,1.4691192750527924,0.0341413099759996,0.1672286957585254,0.1991564047756414,0.1435442273376771,0.0873509582629515,0.4710421632533462,0.499085139239082,0.2470736505800659,5.0,MANUAL,11,29.0,1.0,6.0,2.0,2.0,1.0,3,14,9,11,12,29.0,1,2.0
05-06-07_16-11-42_manual.txt,5,0.1152072794097287,0.0952500422347534,0.0132731596676468,398.18151686973897,258.56642434758965,391.06666666666666,13983,1.1643493789805222,0.0167517571426717,0.0714947941959335,0.123557763931905,0.0849047215507539,0.0282413250745534,0.1228350793891873,0.1989545999957952,0.1372372930400783,5.0,MANUAL,11,29.0,1.0,6.0,2.0,2.0,1.0,3,14,9,11,12,29.0,1,2.0
05-06-07_16-11-42_manual.txt,5,0.5014482667962946,0.2291445878887223,0.2514587462312155,7543.510928190234,199.7703530150794,424.8666666666667,11007,1.5815161330079135,0.0694918858963523,0.347692980326196,0.3377229564906365,0.1286886179303457,0.1653070727426638,0.8403425702654169,0.8143575873644405,0.3052288612303919,5.0,MANUAL,11,29.0,1.0,6.0,2.0,2.0,1.0,3,14,9,11,12,29.0,1,2.0
05-06-07_16-11-42_manual.txt,5,0.4443121943112017,0.1989809819673295,0.1974199066771909,5922.399780409052,197.25007370655436,428.5333333333333,12616,1.6520207744776418,0.0624908842887818,0.2928021537687584,0.2914942072052723,0.117751916326746,0.1577920438677216,0.7296497537055144,0.7212495954084615,0.2659280943310697,5.0,MANUAL,11,29.0,1.0,6.0,2.0,2.0,1.0,3,14,9,11,12,29.0,1,2.0
05-06-07_15-10-22_manual.txt,5,0.3979401330722916,0.2678550791641798,0.1583616282305341,4750.690485287794,203.74145338815796,425.9,10244,1.5891729002723964,0.0704203084534618,0.3972317478175852,0.4048004421971186,0.1481483463091613,0.1219831222888819,0.7155260154549099,0.7259390337531174,0.2642273717268441,5.0,MANUAL,2,29.0,1.0,6.0,3.0,1.0,1.0,16,14,9,11,12,29.0,1,2.0
05-06-07_15-10-22_manual.txt,5,0.2803325736728057,0.2036871050365071,0.0785889714944022,2357.5905558605714,208.60670859713463,422.9333333333333,10495,1.6039973171111903,0.0501203040274164,0.3000512625341745,0.300649215862684,0.1156550188297712,0.0840793261745626,0.5451538021916827,0.5121341321385458,0.1929664903231284,5.0,MANUAL,2,29.0,1.0,6.0,3.0,1.0,1.0,16,14,9,11,12,29.0,1,2.0
05-06-07_15-10-22_manual.txt,5,0.2828709270174363,0.2124339092243526,0.0800186286393251,2400.478840551114,214.30635822031985,417.1666666666667,11072,1.4872930462821223,0.0509735104425523,0.2933762039822883,0.3124504093995728,0.1325706545988646,0.0855964920872616,0.5100768047510484,0.5210289501295593,0.2170888085268705,5.0,MANUAL,2,29.0,1.0,6.0,3.0,1.0,1.0,16,14,9,11,12,29.0,1,2.0
05-06-07_15-10-22_manual.txt,5,0.2642952351151648,0.2022102874825392,0.0698542997812396,2095.559139137408,236.50995548533265,398.3,13121,1.3781560231980596,0.043818054142718,0.2522792452953838,0.2727273871742225,0.1502023434086786,0.0757419355416576,0.4423607074148174,0.4560721223301842,0.2435106056164367,5.0,MANUAL,2,29.0,1.0,6.0,3.0,1.0,1.0,16,14,9,11,12,29.0,1,2.0
05-06-07_15-10-22_manual.txt,5,0.285460348449581,0.2202079389120195,0.0814903268811855,2444.6283161086862,225.2079134313713,408.5,12226,1.3561810669753958,0.048854041736103,0.2694703606269757,0.3174469887403157,0.1576775041037976,0.0838616326776687,0.4626970764541738,0.5258950947970829,0.2536370199504981,5.0,MANUAL,2,29.0,1.0,6.0,3.0,1.0,1.0,16,14,9,11,12,29.0,1,2.0
05-06-07_15-10-22_manual.txt,5,0.2689302270476787,0.2027165855591291,0.072325877882512,2169.70401059748,226.95761588214955,407.8333333333333,12444,1.3710161095301012,0.0436071173500824,0.2325989155912455,0.2932251221924821,0.1478359967128018,0.0808885219637412,0.43889270197516,0.4826419280280171,0.2385036694274126,5.0,MANUAL,2,29.0,1.0,6.0,3.0,1.0,1.0,16,14,9,11,12,29.0,1,2.0
05-06-07_15-40-39_manual.txt,5,0.4940897978186984,0.3383980546445833,0.2441328660707246,7323.741849255669,199.5846423883492,428.5,10047,1.707430767988937,0.1044590637952456,0.4946928150244193,0.5217376886406786,0.1808802473983877,0.1884257989030796,0.8668641789570692,0.9227344800571058,0.3169412902686808,5.0,MANUAL,7,25.0,1.0,6.0,1.0,1.0,1.0,0,14,9,11,12,29.0,1,2.0
05-06-07_15-40-39_manual.txt,5,0.2584167649561276,0.1938675544826314,0.0667814504587391,2003.376732311716,217.1801209574249,415.6666666666667,11034,1.5292233420188952,0.0464830930821195,0.2724464164719437,0.2837108713779668,0.11955892921004,0.0799177028006524,0.4665708871928423,0.4697629979651059,0.1963615049134082,5.0,MANUAL,7,25.0,1.0,6.0,1.0,1.0,1.0,0,14,9,11,12,29.0,1,2.0
05-06-07_15-40-39_manual.txt,5,0.327326401393546,0.240586528034894,0.1071461445874017,3214.277191477464,221.87839566600147,409.3,12323,1.3972492645231196,0.0578847463947275,0.3234412699701365,0.3397194051332932,0.1693759909750092,0.1010935571838725,0.5897236961678091,0.5743736348397233,0.2728079564344915,5.0,MANUAL,7,25.0,1.0,6.0,1.0,1.0,1.0,0,14,9,11,12,29.0,1,2.0
05-06-07_15-40-39_manual.txt,5,0.376136679366936,0.2701713178951268,0.1414835176824413,4244.364046955558,226.89506861617875,407.06666666666666,13428,1.3995364105314017,0.0610340307324949,0.3505353235801403,0.3710347991276517,0.2011123124523027,0.108675490305012,0.6325097011315468,0.6590698060305133,0.3234634599266355,5.0,MANUAL,7,25.0,1.0,6.0,1.0,1.0,1.0,0,14,9,11,12,29.0,1,2.0
05-06-07_15-40-39_manual.txt,5,0.3523909486747343,0.2442200457646574,0.1241835201585511,3725.381421236376,240.96056565840135,396.8,15851,1.3690489457541766,0.0533497023627989,0.2929944069709968,0.3064975549485458,0.2056403678197938,0.1018725465123886,0.5859423484838956,0.5777861955463456,0.3279854692557149,5.0,MANUAL,7,25.0,1.0,6.0,1.0,1.0,1.0,0,14,9,11,12,29.0,1,2.0
05-06-07_15-40-39_manual.txt,5,0.1571378554072,0.1322337951447993,0.0246931287062643,740.7691680592235,315.6679520881871,388.1,19765,0.8579051422941774,0.0143983879163515,0.0555858254340362,0.1053894272548086,0.1624308151987755,0.023566070102167,0.0904032757298288,0.1741618670925451,0.2547518170391065,5.0,MANUAL,7,25.0,1.0,6.0,1.0,1.0,1.0,0,14,9,11,12,29.0,1,2.0
05-06-07_16-31-28_manual.txt,5,0.3229409126805479,0.2278197320856312,0.1042943095599306,3128.7249924883586,208.69525412339232,425.4666666666666,10608,1.6676737652885756,0.0601518638425124,0.3404389780177273,0.3378375288314234,0.1270845512257231,0.1057193026916066,0.6008638917713284,0.5864857244534795,0.2165724372664071,5.0,MANUAL,15,44.0,3.0,12.0,3.0,3.0,4.0,37,14,9,11,12,29.0,1,2.0
05-06-07_16-31-28_manual.txt,5,0.3043752848550221,0.2147785833185055,0.0926474022773184,2779.3294209172755,209.29668411586243,424.76666666666665,10793,1.6487849845396665,0.0582159921427814,0.3253776793743188,0.3144102616309387,0.1213054832278349,0.1003017830410812,0.5647740370922738,0.5522828179775656,0.2022929955653122,5.0,MANUAL,15,44.0,3.0,12.0,3.0,3.0,4.0,37,14,9,11,12,29.0,1,2.0
05-06-07_16-31-28_manual.txt,5,0.2708375672036758,0.1847421552565614,0.0733554329899052,2200.5896342641686,210.62188852915597,424.8,11006,1.678897762446225,0.0485301627382894,0.2775147973699474,0.2718383968724613,0.1050484610110643,0.0840539509392348,0.4885087535952448,0.4872646279763671,0.1789507502616804,5.0,MANUAL,15,44.0,3.0,12.0,3.0,3.0,4.0,37,14,9,11,12,29.0,1,2.0
05-06-07_16-31-28_manual.txt,5,0.2220400063062912,0.1443929267460702,0.0493034078474261,1479.0529320149362,233.63076729407004,409.1,13159,1.5833332116297192,0.0312351701745427,0.2009445261252475,0.1905995494982909,0.1022521798732048,0.0586423917059405,0.4119889519236896,0.3645158462984249,0.1740951803534764,5.0,MANUAL,15,44.0,3.0,12.0,3.0,3.0,4.0,37,14,9,11,12,29.0,1,2.0
05-06-07_16-31-28_manual.txt,5,0.2071842393846975,0.1469730465824955,0.042926739940747,1287.7592714824696,245.6743287393286,397.4333333333333,13986,1.4010647818693582,0.0309122340129815,0.2035099795687985,0.1831565824367181,0.1151669970833561,0.0561484049293852,0.382925637067718,0.3305296995238824,0.1892841240219754,5.0,MANUAL,15,44.0,3.0,12.0,3.0,3.0,4.0,37,14,9,11,12,29.0,1,2.0
05-06-07_16-31-28_manual.txt,5,0.7499960271488522,0.4035962485449794,0.562512791165434,16874.821222171853,198.88729757532403,426.9333333333333,11945,1.6231071927058458,0.118144150771069,0.5688680555998206,0.5985090122817384,0.2383192140580913,0.2464869888758244,1.275030137681506,1.2795494768152844,0.4705093791583628,5.0,MANUAL,15,44.0,3.0,12.0,3.0,3.0,4.0,37,14,9,11,12,29.0,1,2.0
05-06-07_16-31-28_manual.txt,5,0.1309451965760608,0.1094244715780985,0.0171472160802125,514.3993351902964,276.6456720518811,389.23333333333335,15785,1.0977369166420547,0.0169874250315375,0.0613143075927381,0.1314396492808297,0.1115181129274263,0.027761398626171,0.1013066596647069,0.2116456398637366,0.177708306426848,5.0,MANUAL,15,44.0,3.0,12.0,3.0,3.0,4.0,37,14,9,11,12,29.0,1,2.0
05-06-07_16-31-28_manual.txt,5,0.2833223545773417,0.1871879352337166,0.0802742324109959,2408.1466980974687,217.4627759008845,413.76666666666665,12103,1.517694736232274,0.0451179012911012,0.2461366471603705,0.2696110739687663,0.1266455022330409,0.0869034140368589,0.4716360406813192,0.5001740442295702,0.2164166027824587,5.0,MANUAL,15,44.0,3.0,12.0,3.0,3.0,4.0,37,14,9,11,12,29.0,1,2.0
05-06-07_16-31-28_manual.txt,5,0.3366669474404197,0.1621597276153537,0.1133484117792429,3400.33900496551,217.1677594077429,418.1,14116,1.6904967835143498,0.0406682563963592,0.2227272378008514,0.2121942467505219,0.1151781972984601,0.1070068020810857,0.5798233830213774,0.5239287605161126,0.2265056184195821,5.0,MANUAL,15,44.0,3.0,12.0,3.0,3.0,4.0,37,14,9,11,12,29.0,1,2.0
05-06-07_15-16-52_manual.txt,5,0.4312508671101616,0.2806240125952938,0.185983509833594,5579.319311497987,198.01763756858531,429.5,10350,1.7047802952879731,0.0846118683878161,0.4324449327849291,0.4235897289173582,0.1484754866970716,0.1599954892778022,0.7963451130323504,0.7715597805838366,0.2649826032474793,5.0,MANUAL,3,30.0,1.0,6.0,2.0,1.0,1.0,13,14,9,11,12,29.0,1,2.0
05-06-07_15-16-52_manual.txt,5,0.2651984509590552,0.199799093739592,0.0703325628098427,2109.906551732472,230.0861072325245,404.2,12664,1.338639889201645,0.043540670420733,0.2464593030508258,0.2819445898904374,0.145914780916934,0.0739405791057324,0.4347959778809276,0.4748895065269634,0.2353871785186585,5.0,MANUAL,3,30.0,1.0,6.0,2.0,1.0,1.0,13,14,9,11,12,29.0,1,2.0
05-06-07_15-16-52_manual.txt,5,0.2173380814989176,0.1740176475808202,0.0472374162501718,1417.0752500889052,264.69540312730066,383.3,16521,1.012008136964926,0.0292075845701224,0.1696376357764746,0.1955253112467584,0.1780913035656621,0.0491403678467146,0.3000124343517718,0.3272052123955689,0.2754998123740778,5.0,MANUAL,3,30.0,1.0,6.0,2.0,1.0,1.0,13,14,9,11,12,29.0,1,2.0
05-06-07_15-16-52_manual.txt,5,0.2546210897734153,0.1922530927748249,0.0648340604927514,1944.956980722049,265.58503511894014,383.0,17545,1.0876822985468846,0.0318267994310163,0.1957464467675949,0.2102128171760424,0.1950645678899912,0.0585975843204883,0.3634361863096084,0.3824535301791499,0.3032987205600431,5.0,MANUAL,3,30.0,1.0,6.0,2.0,1.0,1.0,13,14,9,11,12,29.0,1,2.0
05-06-07_15-16-52_manual.txt,5,0.2839460235175435,0.2151322218793282,0.0806280318724878,2418.760328142762,263.8458608957026,386.6,16964,1.1472668546046676,0.0404469604292904,0.2473730096945567,0.2445568768506039,0.2080796352689946,0.0710560697701685,0.4474379468797425,0.4362000807209245,0.323026963363399,5.0,MANUAL,3,30.0,1.0,6.0,2.0,1.0,1.0,13,14,9,11,12,29.0,1,2.0
05-06-07_15-16-52_manual.txt,5,0.3283702595530445,0.2422294609442123,0.1078306217129909,3234.810820768014,232.3986745077761,399.3,13687,1.2939247525424356,0.0555920341718186,0.2960914137126006,0.3281752096516907,0.1932890008474647,0.098251752003839,0.5210117030641362,0.5738575182827113,0.3102653734778992,5.0,MANUAL,3,30.0,1.0,6.0,2.0,1.0,1.0,13,14,9,11,12,29.0,1,2.0
05-06-07_16-02-40_manual.txt,5,0.3839711555687204,0.2627411246717114,0.1474387629342096,4423.015449263355,198.1214442978688,431.3333333333333,10236,1.710595134744593,0.0744247223287419,0.403642935623267,0.3996637615900794,0.1357887093125681,0.1327338890760777,0.7167364922910691,0.7045908887773198,0.2346741192385288,5.0,MANUAL,9,25.0,1.0,6.0,1.0,2.0,1.0,7,14,9,11,12,29.0,1,2.0
05-06-07_16-02-40_manual.txt,5,0.281985479848753,0.1951772659503103,0.0795184614609135,2385.4743253659444,201.96389245903413,428.6666666666667,10321,1.6525633021627162,0.0507783792617075,0.3136694518370844,0.2856298131444579,0.1023304773211371,0.0879495239535887,0.5733970813933692,0.5031976309377688,0.1741866499646751,5.0,MANUAL,9,25.0,1.0,6.0,1.0,2.0,1.0,7,14,9,11,12,29.0,1,2.0
05-06-07_16-02-40_manual.txt,5,0.2953040344668349,0.2100638891505254,0.0872073796850457,2616.134183171688,204.59419662433453,428.4666666666666,10278,1.656738032460332,0.048991204237099,0.3264927473690507,0.3049592569167803,0.112858597047955,0.0838415246272331,0.5836846049492698,0.525330954704729,0.1888470670942247,5.0,MANUAL,9,25.0,1.0,6.0,1.0,2.0,1.0,7,14,9,11,12,29.0,1,2.0
05-06-07_16-02-40_manual.txt,5,0.3816402237018071,0.2564564124509285,0.1456541154843482,4369.477810414962,206.06466902151155,425.3333333333333,11122,1.5876945610034747,0.0632141133525524,0.3643019568002124,0.3817359351161269,0.1498480726401367,0.1175343737928562,0.680838077915364,0.6939348048366439,0.2538089534692639,5.0,MANUAL,9,25.0,1.0,6.0,1.0,2.0,1.0,7,14,9,11,12,29.0,1,2.0
05-06-07_16-02-40_manual.txt,5,0.2925387107022499,0.2099101565879335,0.0855817499843341,2567.366917780041,231.9956619328488,403.23333333333335,14198,1.2790298166771976,0.041270431615839,0.2388668713747771,0.2804214363945315,0.1670160157560461,0.0752159489778788,0.4689606303983339,0.5003606513944167,0.2680222616836434,5.0,MANUAL,9,25.0,1.0,6.0,1.0,2.0,1.0,7,14,9,11,12,29.0,1,2.0
05-06-07_16-02-40_manual.txt,5,0.1981751331790993,0.1515371022527913,0.0392746925669726,1178.2015023166125,293.1283776522821,380.56666666666666,20683,0.9171639145550612,0.0203489452656306,0.1032145924582802,0.1268063203004282,0.1793422168772258,0.0430469202744903,0.2268244971385518,0.2486249857999803,0.2804819039719245,5.0,MANUAL,9,25.0,1.0,6.0,1.0,2.0,1.0,7,14,9,11,12,29.0,1,2.0
05-06-07_15-28-48_manual.txt,5,0.3163501403334487,0.2247806018956842,0.1000807473139031,3002.3223386697814,217.30512018062623,414.8333333333333,12472,1.4608024972616338,0.0577608146585956,0.3002910989733927,0.3245867220401032,0.1523013898965001,0.1011572339469654,0.5414083937034744,0.5704072312610311,0.2483076201487928,5.0,MANUAL,5,29.0,1.0,6.0,1.0,2.0,1.0,2,14,9,11,12,29.0,1,2.0
05-06-07_15-28-48_manual.txt,5,0.2300656388738016,0.1697805603170316,0.0529319625891634,1587.9059457123149,228.95558449222588,403.6,13568,1.305284601465374,0.0388695675403331,0.2213752726335913,0.2290734536215644,0.1313207741740701,0.0684961202800578,0.4032088800954842,0.3964292328470366,0.2095609492546338,5.0,MANUAL,5,29.0,1.0,6.0,1.0,2.0,1.0,2,14,9,11,12,29.0,1,2.0
05-06-07_15-28-48_manual.txt,5,0.1997506355915864,0.1503987692754292,0.0399016464741252,1197.0094925772833,241.25289998822063,396.26666666666665,14560,1.191267311714386,0.0288332233242837,0.1711518812971563,0.1955282148475057,0.1286839459821405,0.0502699934946964,0.3188613787334752,0.3352468698733821,0.2023973105190797,5.0,MANUAL,5,29.0,1.0,6.0,1.0,2.0,1.0,2,14,9,11,12,29.0,1,2.0
05-06-07_15-28-48_manual.txt,5,0.2244298769168938,0.165829900466357,0.0503704486678877,1511.0630895879633,239.2038865430736,397.06666666666666,14429,1.2345457405472076,0.0338635443469681,0.1980803582937956,0.2182068618164332,0.1382162329912398,0.060350409116069,0.3572611859098119,0.3783213418808571,0.2193535899736876,5.0,MANUAL,5,29.0,1.0,6.0,1.0,2.0,1.0,2,14,9,11,12,29.0,1,2.0
05-06-07_15-28-48_manual.txt,5,0.3851875222247654,0.2297450692638663,0.1483743730900905,4451.082818329625,209.9829517999123,417.0333333333333,13591,1.5347574945206257,0.0606508994428693,0.2910099297100649,0.3285824255925968,0.1610664447029792,0.1297218940978522,0.6237162927386138,0.6593359005462842,0.2821521367043706,5.0,MANUAL,5,29.0,1.0,6.0,1.0,2.0,1.0,2,14,9,11,12,29.0,1,2.0
05-06-07_15-28-48_manual.txt,5,0.3587824345959738,0.2312376771515744,0.1287291263454924,3861.7450612384255,201.88984866531183,425.8666666666667,10776,1.662631158681156,0.0683709424312662,0.3282529039306271,0.3512447448594046,0.1330441240661558,0.1361287338387009,0.6172037222105728,0.6511943853577249,0.2346023330365058,5.0,MANUAL,5,29.0,1.0,6.0,1.0,2.0,1.0,2,14,9,11,12,29.0,1,2.0
05-06-07_15-46-03_manual.txt,5,0.4105872464995216,0.307256194368979,0.1685875065716113,5057.456609641769,235.84655735795772,400.9666666666666,13594,1.3950959389214106,0.0749831508261643,0.409773854060677,0.4224439122856575,0.2322654156088326,0.1274503406217441,0.7169270750000264,0.718359576207308,0.3686094838273151,5.0,MANUAL,8,29.0,1.0,6.0,1.0,1.0,1.0,0,14,9,11,12,29.0,1,2.0
05-06-07_15-46-03_manual.txt,5,0.3412256586477351,0.2535363279190259,0.1164388314139611,3493.048503587419,251.10829367997476,390.1666666666667,16151,1.2460082296261996,0.0521263984397417,0.313722108968776,0.3058334641107336,0.2250566152370345,0.0911329436766753,0.5623379195085252,0.5466627598699291,0.3523262486087992,5.0,MANUAL,8,29.0,1.0,6.0,1.0,1.0,1.0,0,14,9,11,12,29.0,1,2.0
05-06-07_15-46-03_manual.txt,5,0.3472613869588843,0.2479233665228766,0.1205944906889642,3617.714126178239,246.9330062386865,392.0333333333333,15522,1.250451181165015,0.0492367770480096,0.3035858200524484,0.3055599413255245,0.2225467009251276,0.0864564812528759,0.5864332527906979,0.554062731735958,0.3505786138377413,5.0,MANUAL,8,29.0,1.0,6.0,1.0,1.0,1.0,0,14,9,11,12,29.0,1,2.0
05-06-07_15-46-03_manual.txt,5,0.3272257139524402,0.2414025170801816,0.1070802372129246,3212.3000361505274,245.73132241733967,391.2,15583,1.191926238728634,0.0501692372419064,0.2800880669728683,0.2970629655399894,0.2159534246568083,0.0891215780458905,0.5149584761732041,0.5316614707983252,0.3406353707289512,5.0,MANUAL,8,29.0,1.0,6.0,1.0,1.0,1.0,0,14,9,11,12,29.0,1,2.0
05-06-07_15-46-03_manual.txt,5,0.4266439144307464,0.2855944196595469,0.1820310974240375,5460.750891623701,234.8266468165156,398.3,16057,1.4192797262993455,0.0701118877008263,0.3231231694408051,0.36613123502554,0.2398865792883447,0.1504320532275397,0.6499486030937838,0.7140791333282603,0.3860038674708945,5.0,MANUAL,8,29.0,1.0,6.0,1.0,1.0,1.0,0,14,9,11,12,29.0,1,2.0
05-06-07_15-46-03_manual.txt,5,0.2093353895398312,0.1656191370939093,0.0438227660726619,1314.6391594137867,281.2316391199087,377.8333333333333,18388,0.9442146588312716,0.0239265603263403,0.1022339802226737,0.1627305610217402,0.1861257692934283,0.0447184399854394,0.204515165309684,0.2915301965961005,0.2928723962541699,5.0,MANUAL,8,29.0,1.0,6.0,1.0,1.0,1.0,0,14,9,11,12,29.0,1,2.0
05-06-07_15-22-28_manual.txt,5,0.3149917655700393,0.2099042952006074,0.0992231198142577,2976.5943713079178,198.84171145490555,431.5333333333333,10330,1.724363621790928,0.0580816919023098,0.323937794919295,0.316352412919743,0.1110430623374067,0.1032295245803157,0.5820020202860962,0.5716912173782732,0.1932714484543513,5.0,MANUAL,4,30.0,1.0,6.0,1.0,1.0,1.0,16,14,9,11,12,29.0,1,2.0
05-06-07_15-22-28_manual.txt,5,0.2489024624223868,0.1839998560219227,0.0619545009499593,1858.5730739978303,220.0827210773142,410.3333333333333,12084,1.437832895427379,0.0424776011849163,0.2447066934043168,0.263969226534127,0.1239976841760884,0.0736090084577172,0.4329170270841013,0.4511216071883229,0.2013730387585636,5.0,MANUAL,4,30.0,1.0,6.0,1.0,1.0,1.0,16,14,9,11,12,29.0,1,2.0
05-06-07_15-22-28_manual.txt,5,0.2391122558100702,0.1802275170246984,0.0571765767644726,1715.2401263574145,250.7680635622427,387.1333333333333,15434,1.2130930440406409,0.0374400930181465,0.2125420895818896,0.2237099862808848,0.158167963922436,0.0671806375963522,0.3949012953042315,0.3869143493446684,0.2479345916542004,5.0,MANUAL,4,30.0,1.0,6.0,1.0,1.0,1.0,16,14,9,11,12,29.0,1,2.0
05-06-07_15-22-28_manual.txt,5,0.2451702586702877,0.1843189821079968,0.0601104594184364,1803.253672093674,267.81424695468456,388.73333333333335,17965,1.1705675115969545,0.0347839535999801,0.2108754806482844,0.2016237973907902,0.1826599867545353,0.0623971473560299,0.4067870492113879,0.3607293844338832,0.2818546071206803,5.0,MANUAL,4,30.0,1.0,6.0,1.0,1.0,1.0,16,14,9,11,12,29.0,1,2.0
05-06-07_15-22-28_manual.txt,5,0.4375586335058508,0.2783912466130935,0.191463939886837,5743.726732665224,229.8233891827973,407.06666666666666,16367,1.6068393193583828,0.0697105667418515,0.3697186504805744,0.3585122985220892,0.2167727410259695,0.1470617668554288,0.7501401810651696,0.7126241631156558,0.3624287371849937,5.0,MANUAL,4,30.0,1.0,6.0,1.0,1.0,1.0,16,14,9,11,12,29.0,1,2.0
05-06-07_15-22-28_manual.txt,5,0.3943910193411803,0.2527655240502066,0.1555494611190125,4666.328284109257,226.04168976005596,405.7,15989,1.5186464141389242,0.0630090438623856,0.3094769556889241,0.325635490808261,0.1978566545123616,0.1284544517431775,0.6647903119754547,0.6514119084856133,0.3266037387621059,5.0,MANUAL,4,30.0,1.0,6.0,1.0,1.0,1.0,16,14,9,11,12,29.0,1,2.0
05-06-07_15-34-30_manual.txt,5,0.3591811427995641,0.2553008987286743,0.1290153938559294,3870.332800284025,204.1941417919873,424.2,10940,1.60441961479165,0.0730613129734046,0.3601500363548692,0.3843252730689719,0.1488997089398304,0.126773122307712,0.623204476635435,0.6703839924165591,0.2482782639670329,5.0,MANUAL,6,25.0,1.0,6.0,1.0,2.0,1.0,3,14,9,11,12,29.0,1,2.0
05-06-07_15-34-30_manual.txt,5,0.2655193252995061,0.1888141802654884,0.0705028622029117,2115.015363225148,209.2658705027091,421.1666666666667,11334,1.5223635339161388,0.0480810559982973,0.265195524130365,0.2790311027263707,0.1148659997512525,0.0837401529526565,0.4753924553094518,0.4850124653451834,0.1899314801787218,5.0,MANUAL,6,25.0,1.0,6.0,1.0,2.0,1.0,3,14,9,11,12,29.0,1,2.0
05-06-07_15-34-30_manual.txt,5,0.1954319963150676,0.138421853043399,0.0381949383483042,1145.809955510778,219.81699995149785,413.56666666666666,12322,1.440060969615934,0.0311833100227897,0.172512479352356,0.1990173498895716,0.0954398336261402,0.0536826461237162,0.337177176680515,0.3462919937971502,0.1558705316537453,5.0,MANUAL,6,25.0,1.0,6.0,1.0,2.0,1.0,3,14,9,11,12,29.0,1,2.0
05-06-07_15-34-30_manual.txt,5,0.1898807752005755,0.1416948684059147,0.0360559106544599,1081.641263723145,258.4356229174947,387.1,16598,1.2020730808399782,0.0266823346152773,0.1628692579262508,0.1679062928293341,0.1312271932127596,0.0474594818996677,0.2862510202524984,0.3008031509215079,0.2057263736044041,5.0,MANUAL,6,25.0,1.0,6.0,1.0,2.0,1.0,3,14,9,11,12,29.0,1,2.0
05-06-07_15-34-30_manual.txt,5,0.6349116048341193,0.3555512740032465,0.4031261834924867,12093.382378591108,206.421783684365,421.26666666666665,14878,1.6529037818299797,0.1110805891923513,0.515975378901824,0.4917342070854058,0.2320084348445777,0.239986962598119,1.1049027151282784,1.0540690587735542,0.4279651629682721,5.0,MANUAL,6,25.0,1.0,6.0,1.0,2.0,1.0,3,14,9,11,12,29.0,1,2.0
05-06-07_15-34-30_manual.txt,5,0.3879601738105105,0.2130427483044274,0.1505181137335393,4515.392893892447,209.6563489266496,412.9,13825,1.4563741442179128,0.0541287638918228,0.2790894266247815,0.2934548324932548,0.157626168010479,0.1227975219821262,0.6508860041103522,0.6242657810744151,0.2889992022905961,5.0,MANUAL,6,25.0,1.0,6.0,1.0,2.0,1.0,3,14,9,11,12,29.0,1,2.0
05-06-07_16-07-12_manual.txt,5,0.5056883488336458,0.3253151013337217,0.2557292304537808,7671.621184382971,213.8288505431908,418.0333333333333,13304,1.5952730935691706,0.0878535348764799,0.4434964078636876,0.4610693541190621,0.2195444052919668,0.1676570902755164,0.8501743456977648,0.887836934924658,0.3711275021519373,5.0,MANUAL,10,30.0,1.0,6.0,1.0,2.0,2.0,11,14,9,11,12,29.0,1,2.0
05-06-07_16-07-12_manual.txt,5,0.2955897443517006,0.2151000425209264,0.0873762095062205,2621.1989089771114,241.48342637097923,395.3666666666667,15241,1.2632689500478376,0.0440005782707953,0.2565182311406147,0.2735063675568732,0.1825574381085916,0.078760022688559,0.4799313177783298,0.4913574924596937,0.2871980537771475,5.0,MANUAL,10,30.0,1.0,6.0,1.0,2.0,2.0,11,14,9,11,12,29.0,1,2.0
05-06-07_16-07-12_manual.txt,5,0.3418722575198041,0.2441018714186594,0.1168805364795699,3506.299213850617,243.15862668159892,398.6,15559,1.3752962011804772,0.0504783750782812,0.318966632678676,0.3040744161981799,0.2019385234567573,0.0928419474797507,0.5992708058578112,0.5591433179961802,0.3188667125480261,5.0,MANUAL,10,30.0,1.0,6.0,1.0,2.0,2.0,11,14,9,11,12,29.0,1,2.0
05-06-07_16-07-12_manual.txt,5,0.2919527920151347,0.2185885912560954,0.0852392740745683,2557.092982962976,253.0765383787897,389.9666666666666,15960,1.257733834344233,0.0431720483772363,0.2809106779922202,0.2627529383890321,0.1917569501613837,0.0760304942886658,0.5012505638218149,0.4606680052208854,0.3014944254691388,5.0,MANUAL,10,30.0,1.0,6.0,1.0,2.0,2.0,11,14,9,11,12,29.0,1,2.0
05-06-07_16-07-12_manual.txt,5,0.3113626538375977,0.2193816775204916,0.0969499338692539,2908.4010661437505,250.43206514227467,393.1666666666667,16917,1.3182161532877346,0.0431453359917791,0.2615604772910216,0.2588110969678779,0.1936973922802802,0.0835138950775696,0.5166005345092421,0.4878778989147959,0.3062143579380899,5.0,MANUAL,10,30.0,1.0,6.0,1.0,2.0,2.0,11,14,9,11,12,29.0,1,2.0
05-06-07_16-07-12_manual.txt,5,0.1536580698221484,0.1290595082538072,0.0236115894744507,708.3240726440475,339.0183652019383,396.9333333333333,22709,0.7169509835879138,0.0127433577025312,0.0611407666500335,0.0804845668581327,0.1696729531317011,0.0215622932243286,0.0984175893830759,0.1312399787514853,0.2618139944539203,5.0,MANUAL,10,30.0,1.0,6.0,1.0,2.0,2.0,11,14,9,11,12,29.0,1,2.0
05-06-07_16-16-14_manual.txt,5,0.357339747340947,0.2429646414942731,0.1276959515614105,3830.7508508907554,204.68338030298136,426.1,10448,1.6458483466965377,0.0649839825949436,0.3695148192066948,0.3638693481597312,0.1348215464060397,0.1158832857815132,0.6493988589140351,0.6461576908171078,0.2348261126109703,5.0,MANUAL,12,30.0,2.0,7.0,2.0,2.0,2.0,16,14,9,11,12,29.0,1,2.0
05-06-07_16-16-14_manual.txt,5,0.3500119023125537,0.2451486543641575,0.1225124155076362,3675.249952813581,209.2015386568687,425.76666666666665,10557,1.6481541145540344,0.0594329160925164,0.3664801632324493,0.3670232687423527,0.1374683091383807,0.1039563958151063,0.6417496659529517,0.6418912246736584,0.2314961128758948,5.0,MANUAL,12,30.0,2.0,7.0,2.0,2.0,2.0,16,14,9,11,12,29.0,1,2.0
05-06-07_16-16-14_manual.txt,5,0.3237629552999447,0.231852105566312,0.1048259454227347,3144.6735367366205,212.5310824202077,421.3666666666667,10981,1.5965172973952608,0.0540730373915948,0.3297137410797141,0.3408342702560878,0.1383925385936684,0.0928790378316493,0.5820236715212137,0.5874659147717496,0.2294656797518043,5.0,MANUAL,12,30.0,2.0,7.0,2.0,2.0,2.0,16,14,9,11,12,29.0,1,2.0
05-06-07_16-16-14_manual.txt,5,0.3325310595579681,0.2375070242985097,0.1105805915904646,3317.3071671223474,221.37389435205407,412.9333333333333,12031,1.440913686965298,0.0530448800815601,0.3111148663697781,0.3383921728651031,0.1642760626359821,0.0921424316188067,0.5818352562546576,0.5849219219067452,0.2697007259855464,5.0,MANUAL,12,30.0,2.0,7.0,2.0,2.0,2.0,16,14,9,11,12,29.0,1,2.0
05-06-07_16-16-14_manual.txt,5,0.3317347872674307,0.2414252466501856,0.1100516374712832,3301.4390725010253,250.20228482127536,389.8333333333333,15759,1.2286187431464353,0.0482902289637315,0.2788141622949225,0.2957309559292878,0.2137149211043443,0.0853927706542196,0.5409361488433935,0.5296643639660787,0.3384673217279553,5.0,MANUAL,12,30.0,2.0,7.0,2.0,2.0,2.0,16,14,9,11,12,29.0,1,2.0
05-06-07_16-16-14_manual.txt,5,0.2203493210411583,0.1742155979778843,0.048555441798026,1456.6146984989837,310.50269550017777,383.06666666666666,22659,0.8557163494170908,0.0196701999192454,0.0916797782388385,0.1168981264423785,0.2199497103757333,0.0468349323286204,0.2160086921274807,0.2263686479899553,0.3423117462609833,5.0,MANUAL,12,30.0,2.0,7.0,2.0,2.0,2.0,16,14,9,11,12,29.0,1,2.0
