filename,patient,rmse,mav,var,energy,mnf,mdf,zc,fr,mav_arr_0,mav_arr_1,mav_arr_2,mav_arr_3,std_0,std_1,std_2,std_3,ID,Task,File_number,STAI_Total,Fatigue,Stress,Mental_Demand,Physical_Demand,Frustration,NASA_Total,PSS,NARS_S1,NARS_S2,NARS_S3,Age,Sex,Experience
01-05-19_10-38-28_manual.txt,1,0.4200216051133302,0.2841129881961012,0.1764240295629637,5292.544462859349,220.3311374597718,406.6333333333333,12380,1.3959607049403098,0.0778597511465504,0.429825165182208,0.3776140445729544,0.1982897626805437,0.1422101190391188,0.8101016521978638,0.6718621965214732,0.3354523513373951,1.0,MANUAL,4,43.0,2.0,11.0,2.0,3.0,4.0,40,12,16,14,11,26.0,1,1.0
01-05-19_10-38-28_manual.txt,1,0.6261626320711289,0.4427846182377748,0.3920927115592958,11762.389254067317,210.86068991996015,415.6666666666667,10734,1.519220499395839,0.1353212731153601,0.7506984661203132,0.5944531869023967,0.267110707743585,0.2325074830581664,1.292307479757544,1.0304444081300164,0.4531858762183856,1.0,MANUAL,4,43.0,2.0,11.0,2.0,3.0,4.0,40,12,16,14,11,26.0,1,1.0
01-05-19_10-38-28_manual.txt,1,0.6155275784442998,0.4582692423011086,0.3788868293864832,11366.225994765113,211.14109056534784,416.3666666666667,10239,1.4967942756093175,0.140640962663737,0.7897069852909904,0.6245532637340903,0.2651774977852718,0.2270169646697546,1.3471092573230563,1.0524796276359376,0.4427490224338818,1.0,MANUAL,4,43.0,2.0,11.0,2.0,3.0,4.0,40,12,16,14,11,26.0,1,1.0
01-05-19_10-38-28_manual.txt,1,0.5838677783802226,0.4349286977557187,0.3409129463955366,10227.047478919703,214.46692239192112,413.9666666666666,10330,1.5185436304772375,0.1305779239419883,0.7487830909671814,0.5881745957758007,0.2586969822462053,0.214807834530755,1.2257721738132794,0.9942126278747428,0.4279610676071479,1.0,MANUAL,4,43.0,2.0,11.0,2.0,3.0,4.0,40,12,16,14,11,26.0,1,1.0
01-05-19_10-38-28_manual.txt,1,0.5081059469360769,0.3597827304260227,0.2581802593204514,7745.149599354221,216.71587790716987,409.9666666666666,11606,1.4738364042708467,0.1070331059010877,0.5895000921531164,0.4801811465208405,0.2330591923146067,0.1833468041517365,1.0316527852102286,0.8316800504905058,0.387924085426676,1.0,MANUAL,4,43.0,2.0,11.0,2.0,3.0,4.0,40,12,16,14,11,26.0,1,1.0
01-05-19_10-38-28_manual.txt,1,0.3902659963578248,0.2717389430865687,0.1523126250006657,4569.226437394971,228.81436779635175,401.6666666666667,12852,1.3765053344743683,0.0710974426292062,0.3808052511695952,0.3672813204926849,0.2017201475925008,0.1297954599514305,0.7154000516796705,0.6442126715155755,0.3367496224737223,1.0,MANUAL,4,43.0,2.0,11.0,2.0,3.0,4.0,40,12,16,14,11,26.0,1,1.0
01-05-19_10-38-28_manual.txt,1,0.4246340946751689,0.3061976817751016,0.1803201250314346,5409.423430818008,225.37861347992575,404.5333333333333,12020,1.383581370098618,0.079191149869372,0.4372622057514914,0.4288526291285807,0.2161547440604878,0.1330580305541227,0.768458550995759,0.7350863627241215,0.3574012218352181,1.0,MANUAL,4,43.0,2.0,11.0,2.0,3.0,4.0,40,12,16,14,11,26.0,1,1.0
01-05-19_10-38-28_manual.txt,1,0.250930730203778,0.1759880843025632,0.0629683303049447,1888.9869408180375,258.49734806771454,381.26666666666665,17087,1.1567039397278278,0.0347209164702031,0.1755316714736793,0.2014738991414822,0.1746177434113601,0.0651517829406946,0.3665303383881929,0.3748716759358272,0.2826729604458026,1.0,MANUAL,4,43.0,2.0,11.0,2.0,3.0,4.0,40,12,16,14,11,26.0,1,1.0
01-05-19_10-38-28_manual.txt,1,0.1630734130129393,0.1343704668242182,0.026593824492505,797.7881409506602,319.3842827994075,382.9333333333333,21190,0.8377871080255772,0.0173484559829809,0.0832430534973077,0.110856295600389,0.1691185580053337,0.0281364588941659,0.1352466844708662,0.1790344257678315,0.2640925439890753,1.0,MANUAL,4,43.0,2.0,11.0,2.0,3.0,4.0,40,12,16,14,11,26.0,1,1.0
01-05-19_10-38-28_manual.txt,1,0.1621466161377827,0.1337588163498751,0.026292401538318,788.7457537480037,316.3459542041208,379.5,20539,0.8527000528322358,0.016961747429163,0.0788334302917765,0.1144062004523024,0.1670231327360876,0.0276052426789858,0.1272355318563427,0.1832180386177739,0.2602553869991076,1.0,MANUAL,4,43.0,2.0,11.0,2.0,3.0,4.0,40,12,16,14,11,26.0,1,1.0
01-05-19_10-38-28_manual.txt,1,0.2483869870661702,0.1563147502674322,0.0616981519488747,1850.8828603142947,262.438005011127,381.6666666666667,19649,1.1579974151775336,0.0285444661625059,0.1330017346235624,0.1509038352738185,0.1757499976115171,0.0851854368953073,0.3816068350022417,0.3290904898111441,0.2809007086577348,1.0,MANUAL,4,43.0,2.0,11.0,2.0,3.0,4.0,40,12,16,14,11,26.0,1,1.0
01-05-19_10-38-28_manual.txt,1,0.1830281541920062,0.1453059011109088,0.033500421907663,1004.9791568079842,294.0429965655893,371.2,18926,0.968488538548074,0.0219797126250745,0.1042815299237843,0.1476336364958711,0.168393068147948,0.0377502786502524,0.1900975027069758,0.2459625568806213,0.2631926966715754,1.0,MANUAL,4,43.0,2.0,11.0,2.0,3.0,4.0,40,12,16,14,11,26.0,1,1.0
01-05-19_11-16-01_manual.txt,1,0.4493333134926728,0.3146851482198344,0.2019071568528663,6057.012798429138,209.5539910206384,418.73333333333335,10368,1.5378026410016423,0.0910455513196411,0.5366423012419216,0.4313543857657382,0.180323879187462,0.1560707434330086,0.940330117134009,0.7632832140955015,0.3097576414447425,1.0,MANUAL,6,47.0,2.0,12.0,3.0,3.0,5.0,51,12,16,14,11,26.0,1,1.0
01-05-19_11-16-01_manual.txt,1,0.5208205556879971,0.3640333696971258,0.2712630933302651,8137.621536814624,205.5008740763281,421.0333333333333,10336,1.5454714140219328,0.1072845319839244,0.6289115999500713,0.4954414382067068,0.203759375129215,0.1822520645231563,1.117815614519893,0.8652752738099835,0.3482095047626121,1.0,MANUAL,6,47.0,2.0,12.0,3.0,3.0,5.0,51,12,16,14,11,26.0,1,1.0
01-05-19_11-16-01_manual.txt,1,0.5138330723314527,0.3659941682213373,0.2640332273291575,7920.732786647396,207.15580681329172,419.4,10154,1.5260400328206665,0.1088687696036014,0.6240166419248819,0.503018761637982,0.205816549148861,0.1805333076553726,1.0715413583486924,0.8640236009795538,0.3510124935770538,1.0,MANUAL,6,47.0,2.0,12.0,3.0,3.0,5.0,51,12,16,14,11,26.0,1,1.0
01-05-19_11-16-01_manual.txt,1,0.540945932272818,0.3755866449460954,0.2926322560510432,8778.675049275245,206.4618314527169,421.8,10259,1.55387656847502,0.1093703029950357,0.6651240225919154,0.5120187125169614,0.2087918790491189,0.1850326868523359,1.1536752557077985,0.8978420248174338,0.3568014767828782,1.0,MANUAL,6,47.0,2.0,12.0,3.0,3.0,5.0,51,12,16,14,11,26.0,1,1.0
01-05-19_11-16-01_manual.txt,1,0.413032378903174,0.2829827882979231,0.1706014327368397,5117.872380672454,213.3091482782725,414.6666666666667,11247,1.514406318648733,0.0871423634652494,0.4860822962935949,0.3759579943462876,0.1780503982037985,0.1542772755126295,0.8690886873022393,0.6698795173902781,0.3013737105921749,1.0,MANUAL,6,47.0,2.0,12.0,3.0,3.0,5.0,51,12,16,14,11,26.0,1,1.0
01-05-19_11-16-01_manual.txt,1,0.3480854496104338,0.2481810798239444,0.1211675191478028,3634.9044069149368,225.3964334881888,406.56666666666666,12075,1.4883341589909604,0.0710236744411689,0.396531950408636,0.3342687145862155,0.167389812995398,0.1221216316507858,0.6970534531407915,0.577725889296419,0.2800170194262508,1.0,MANUAL,6,47.0,2.0,12.0,3.0,3.0,5.0,51,12,16,14,11,26.0,1,1.0
01-05-19_11-16-01_manual.txt,1,0.2518374959857311,0.1828159190797041,0.0634242385256473,1902.663731530894,244.7562115906046,391.1,13929,1.3737248947423877,0.0452178639480123,0.2441148791735629,0.23958075994248,0.1490386481725703,0.0806293712678352,0.4362136593894737,0.4155115882021208,0.243113235614329,1.0,MANUAL,6,47.0,2.0,12.0,3.0,3.0,5.0,51,12,16,14,11,26.0,1,1.0
01-05-19_11-16-01_manual.txt,1,0.2009523618816868,0.147976559768435,0.0403831978524235,1211.4555523748531,239.54745291691603,392.8333333333333,12799,1.3804267808805837,0.0427681670080255,0.2218684301919613,0.1898878343223881,0.1132493127219177,0.0725783476239496,0.3801529124913912,0.3245773572089946,0.1863022768685962,1.0,MANUAL,6,47.0,2.0,12.0,3.0,3.0,5.0,51,12,16,14,11,26.0,1,1.0
01-05-19_11-16-01_manual.txt,1,0.1756788863716647,0.1358832046762641,0.0308640999201189,925.8921335036488,252.5148282837487,383.0,14137,1.179927762217149,0.0350307016320401,0.1852337558238188,0.1656310877754731,0.11998883571263,0.058112235314883,0.3086426555879589,0.2749525935855132,0.1917107640214507,1.0,MANUAL,6,47.0,2.0,12.0,3.0,3.0,5.0,51,12,16,14,11,26.0,1,1.0
01-05-19_10-13-11_manual.txt,1,0.5523139006467455,0.3832652554038528,0.3050608135414077,9151.51934542869,211.45412194639547,416.5,10985,1.5144040578763498,0.1149019031892084,0.6306176014296816,0.5309734020435054,0.2296976945839018,0.1985529103916769,1.119370580761371,0.9321261291469366,0.3892841264924146,1.0,MANUAL,3,40.0,2.0,12.0,2.0,1.0,3.0,23,12,16,14,11,26.0,1,1.0
01-05-19_10-13-11_manual.txt,1,0.5713912630378437,0.4084985868604953,0.3264988587712747,9794.63926427947,207.38822248294773,418.6,10129,1.5185383052881254,0.1262781355850088,0.710422619923596,0.5507873352024573,0.23305539520572,0.2150891907486828,1.2434144893101031,0.9457727661354288,0.3969429325483579,1.0,MANUAL,3,40.0,2.0,12.0,2.0,1.0,3.0,23,12,16,14,11,26.0,1,1.0
01-05-19_10-13-11_manual.txt,1,0.4677103284062233,0.328181728370689,0.2187602433059674,6562.588538935716,209.38737119320683,417.9,10699,1.5306708998423435,0.1012280817230151,0.5538393719960344,0.4464760421874001,0.1924642639684295,0.1717944665144821,0.9813639654073228,0.7766178873406572,0.3262649775063947,1.0,MANUAL,3,40.0,2.0,12.0,2.0,1.0,3.0,23,12,16,14,11,26.0,1,1.0
01-05-19_10-13-11_manual.txt,1,0.4215512448957639,0.3121146341835919,0.1777113757856945,5331.163562195049,216.82741720005708,412.3666666666667,10682,1.5216266406108587,0.0941799023209599,0.525767022003455,0.4219686037356362,0.1904316747136839,0.1548768133498599,0.8630803473041837,0.7179631758760349,0.3176459096450854,1.0,MANUAL,3,40.0,2.0,12.0,2.0,1.0,3.0,23,12,16,14,11,26.0,1,1.0
01-05-19_10-13-11_manual.txt,1,0.3668682986781884,0.2573221477624778,0.1345968351361996,4037.770457250853,221.55674846680952,407.9333333333333,12070,1.48102519656777,0.0748174244499068,0.4100796635179837,0.3439064177885746,0.173649498324647,0.1294127327758665,0.7255334998164709,0.6063381891895905,0.2873930917740004,1.0,MANUAL,3,40.0,2.0,12.0,2.0,1.0,3.0,23,12,16,14,11,26.0,1,1.0
01-05-19_10-13-11_manual.txt,1,0.2585651805747972,0.1907560345849558,0.0668581812117178,2005.6785781703245,239.0381303362427,392.76666666666665,13553,1.3010177669291776,0.0474778245250922,0.2505557532138313,0.2520423711526317,0.1536409562747951,0.0801486181901793,0.4523567837306805,0.4307609158896073,0.2492014128665595,1.0,MANUAL,3,40.0,2.0,12.0,2.0,1.0,3.0,23,12,16,14,11,26.0,1,1.0
01-05-19_10-13-11_manual.txt,1,0.2660609112837248,0.1950185726347133,0.0707907682053995,2123.6522553937816,239.92857685946197,392.73333333333335,13480,1.281083326135413,0.0476414644834909,0.2433833345878505,0.2625062271342085,0.1599267579656178,0.0818050647636749,0.4238925338877502,0.4539155736011625,0.2611002733980181,1.0,MANUAL,3,40.0,2.0,12.0,2.0,1.0,3.0,23,12,16,14,11,26.0,1,1.0
01-05-19_10-13-11_manual.txt,1,0.2900228154137632,0.2147372323780338,0.0841160373284366,2523.397003815772,236.2014770578876,395.4333333333333,12881,1.2885076234847803,0.0546703821279459,0.290245845022607,0.2877392657510665,0.1693804676326014,0.0943487741350957,0.5025971065297791,0.4857216687175823,0.2780784315742408,1.0,MANUAL,3,40.0,2.0,12.0,2.0,1.0,3.0,23,12,16,14,11,26.0,1,1.0
01-05-19_10-13-11_manual.txt,1,0.2206884742241182,0.1638285990745375,0.0487050261562411,1461.102079661079,241.49684994808152,389.76666666666665,13811,1.2447660121550863,0.0456510634985276,0.222974407762646,0.2104040071093754,0.1356458385381432,0.0776441159717981,0.3841024102684514,0.3601369649002917,0.2192359268893687,1.0,MANUAL,3,40.0,2.0,12.0,2.0,1.0,3.0,23,12,16,14,11,26.0,1,1.0
01-05-19_11-08-10_manual.txt,1,0.5069679343644202,0.3536976706566384,0.2570250539755262,7710.494594211811,209.75021294182915,418.76666666666665,10511,1.5720122050581944,0.108100053419095,0.6187794428506809,0.4823815482518772,0.201111558285523,0.1862284086581707,1.0718693918304194,0.8488192983228541,0.3460802845860985,1.0,MANUAL,5,47.0,2.0,14.0,2.0,2.0,5.0,45,12,16,14,11,26.0,1,1.0
01-05-19_11-08-10_manual.txt,1,0.7870162150907002,0.4382092270184733,0.6194151699880243,18581.835684470738,200.0112143355708,426.7,10180,1.569339673073563,0.1306132717169315,0.7654669988280145,0.5985645456704363,0.2290054932834519,0.2423683436156933,1.4757417399230963,1.2954833648332549,0.4517319216648613,1.0,MANUAL,5,47.0,2.0,14.0,2.0,2.0,5.0,45,12,16,14,11,26.0,1,1.0
01-05-19_11-08-10_manual.txt,1,0.4231936810341332,0.3008942818467571,0.1790988616292739,5372.786750016589,208.6261747466234,417.3333333333333,10274,1.5156216458781364,0.0916406919770101,0.532252237701141,0.4033802684319619,0.1743491374677374,0.1566034000434003,0.9287243903389012,0.6917321782223937,0.2960145091201123,1.0,MANUAL,5,47.0,2.0,14.0,2.0,2.0,5.0,45,12,16,14,11,26.0,1,1.0
01-05-19_11-08-10_manual.txt,1,0.4344740945619151,0.3101324073324443,0.1887740313131063,5663.032165361879,208.80014475793493,418.8,10227,1.5291543463858992,0.0936995891219409,0.5453619462211668,0.4134260770363339,0.1787307295761997,0.1575585685429454,0.9503642009900846,0.7156711935933207,0.3026662854775807,1.0,MANUAL,5,47.0,2.0,14.0,2.0,2.0,5.0,45,12,16,14,11,26.0,1,1.0
01-05-19_11-08-10_manual.txt,1,0.2871728419869515,0.1944915773284924,0.0824709902078695,2474.047235245879,217.77981085085744,411.9333333333333,11514,1.5010135522321737,0.0552991507561513,0.2964533891454617,0.2713100429925672,0.1271254042092571,0.0987311069527749,0.5308820841914854,0.4889971303400635,0.2167655675526817,1.0,MANUAL,5,47.0,2.0,14.0,2.0,2.0,5.0,45,12,16,14,11,26.0,1,1.0
01-05-19_11-08-10_manual.txt,1,0.2198543039568459,0.1639526952956668,0.0483375262192231,1450.0774490504764,238.6752503829839,393.1666666666667,13211,1.2695633124898915,0.0405429832233601,0.2128989300033739,0.2187280977170912,0.1326757128899177,0.0701814776406417,0.3772797003607027,0.3672610079631664,0.2165403137282468,1.0,MANUAL,5,47.0,2.0,14.0,2.0,2.0,5.0,45,12,16,14,11,26.0,1,1.0
01-05-19_11-08-10_manual.txt,1,0.2447795422825948,0.1833344000615972,0.0599190216207973,1797.5107296022998,243.38559240978608,391.76666666666665,13318,1.2486344306202233,0.0424707687862307,0.2256269364806598,0.248466142359727,0.1527873207724409,0.0693749437962355,0.3858729827367316,0.4149903946938501,0.2504809835221183,1.0,MANUAL,5,47.0,2.0,14.0,2.0,2.0,5.0,45,12,16,14,11,26.0,1,1.0
01-05-19_11-08-10_manual.txt,1,0.4854431536329128,0.199846255608233,0.235662910839429,7069.651662272033,205.38488466728376,422.0333333333333,14639,1.5797589185121097,0.0498061645385097,0.2925679723478064,0.2580108199722383,0.1454834868792749,0.1322998358580356,0.8999025051891956,0.7123438778113361,0.2982092408917523,1.0,MANUAL,5,47.0,2.0,14.0,2.0,2.0,5.0,45,12,16,14,11,26.0,1,1.0
01-05-19_11-08-10_manual.txt,1,0.1144506308221443,0.0928169472984051,0.0130993835417048,392.9684068676032,289.78173240326873,372.6333333333333,17155,1.0148839227580544,0.0149982789604535,0.068059430637128,0.1019706264094365,0.1007113031254967,0.0246364666406647,0.1151169677967488,0.1649357136090374,0.1594913916075487,1.0,MANUAL,5,47.0,2.0,14.0,2.0,2.0,5.0,45,12,16,14,11,26.0,1,1.0
01-05-19_11-59-37_manual.txt,1,0.7346339654102277,0.5015454757139786,0.539705053302799,16190.61189403067,203.92146377530295,422.23333333333335,10168,1.5513480883234223,0.1472430312858455,0.8666415808678569,0.6981527221114109,0.2700571277773824,0.2536837425620835,1.4876936075473313,1.2426491168481415,0.471550831343592,1.0,MANUAL,9,65.0,4.0,21.0,3.0,3.0,7.0,53,12,16,14,11,26.0,1,1.0
01-05-19_11-59-37_manual.txt,1,0.4693371815564,0.3154052963791442,0.2202847328157324,6608.321699739156,206.9718769334669,419.4666666666666,10286,1.5286965692653172,0.0936849376567439,0.5413659622818363,0.4298653761015858,0.179400675431641,0.1656068645405766,0.9697632415108332,0.7771693498234745,0.3174727381251371,1.0,MANUAL,9,65.0,4.0,21.0,3.0,3.0,7.0,53,12,16,14,11,26.0,1,1.0
01-05-19_11-59-37_manual.txt,1,0.3173965018418301,0.2317951952016988,0.1007438975113479,3022.216181442926,216.3781497574105,412.0,10692,1.4658900925679057,0.0709716949562535,0.3838836689673597,0.3164218943344873,0.1428907488632055,0.1190513192711431,0.6479104741184181,0.5390866282762479,0.239601431817614,1.0,MANUAL,9,65.0,4.0,21.0,3.0,3.0,7.0,53,12,16,14,11,26.0,1,1.0
01-05-19_11-59-37_manual.txt,1,0.2698459024829568,0.1983152098175832,0.0728192383947879,2184.504332605243,221.7212309843528,407.26666666666665,11301,1.461161974890297,0.0567075660362957,0.3089947319354639,0.2715390201407883,0.1309820929975456,0.096320594082961,0.5288922193666133,0.4577822659845397,0.2172823045131743,1.0,MANUAL,9,65.0,4.0,21.0,3.0,3.0,7.0,53,12,16,14,11,26.0,1,1.0
01-05-19_11-59-37_manual.txt,1,0.296195012190378,0.2162899984216326,0.0877344097267824,2631.944557393746,223.37991976435703,406.3333333333333,11367,1.4362145182795056,0.061226101851471,0.3236411946281106,0.3027234520715532,0.1444380461362232,0.1056948910312854,0.549557343324857,0.5152311569766842,0.2418864284642914,1.0,MANUAL,9,65.0,4.0,21.0,3.0,3.0,7.0,53,12,16,14,11,26.0,1,1.0
01-05-19_11-59-37_manual.txt,1,0.3456625024264501,0.2345862676798485,0.1194865484686645,3584.476967511468,223.9525297236031,407.3666666666667,11661,1.4569944518720217,0.0620078917845178,0.338026194400449,0.3313093208528111,0.16170163182759,0.1142750356122237,0.5964157889870503,0.5983181329237798,0.2802667481577783,1.0,MANUAL,9,65.0,4.0,21.0,3.0,3.0,7.0,53,12,16,14,11,26.0,1,1.0
01-05-19_11-59-37_manual.txt,1,0.3414369506458756,0.2224330202026868,0.116583077368933,3497.375737990624,222.9935977692464,408.6333333333333,12704,1.4487761636251286,0.0546067348490563,0.3047921516196993,0.3105307329605823,0.1576778948293632,0.0973732190725511,0.6115535247312058,0.5664065592379248,0.2693450804806327,1.0,MANUAL,9,65.0,4.0,21.0,3.0,3.0,7.0,53,12,16,14,11,26.0,1,1.0
01-05-19_11-59-37_manual.txt,1,0.2164910635950134,0.1489244520747246,0.0468699429479317,1406.051418495004,238.2216110854573,391.6333333333333,14215,1.2598065892334478,0.035801626219357,0.1655220971772754,0.1947072799365905,0.1269344101135165,0.0702105373732735,0.3414465085668181,0.3490527299436174,0.2110373924450204,1.0,MANUAL,9,65.0,4.0,21.0,3.0,3.0,7.0,53,12,16,14,11,26.0,1,1.0
01-05-19_11-59-37_manual.txt,1,0.4842378364357861,0.2609694171081879,0.234494098705968,7034.588467080335,209.4859153353341,417.6,12337,1.5187878813230662,0.0695428682340406,0.3722193177271999,0.3636469835874787,0.1781249374537621,0.1494088730083922,0.9350049226332764,0.7423672931990254,0.3294805260225787,1.0,MANUAL,9,65.0,4.0,21.0,3.0,3.0,7.0,53,12,16,14,11,26.0,1,1.0
01-05-19_11-25-36_manual.txt,1,0.5329547546078678,0.3703871674111705,0.2840502388004259,8521.223113773976,209.5799421340527,417.4,10826,1.5330149467808494,0.108970129514038,0.6290672208567063,0.5033633391341317,0.2169521084012523,0.1873222137871263,1.0932869432156382,0.8889732396527712,0.373901757370923,1.0,MANUAL,7,50.0,3.0,15.0,3.0,3.0,5.0,47,12,16,14,11,26.0,1,1.0
01-05-19_11-25-36_manual.txt,1,0.5743831082337686,0.4070072985735316,0.3299269525893714,9897.478650728552,209.1452643709508,418.5333333333333,10569,1.5312424631947692,0.122128597504963,0.6912601253916614,0.5554202408950879,0.2324266286570696,0.2059906599880882,1.2037041903683867,0.967586679794694,0.3928838436585989,1.0,MANUAL,7,50.0,3.0,15.0,3.0,3.0,5.0,47,12,16,14,11,26.0,1,1.0
01-05-19_11-25-36_manual.txt,1,0.5050438459798784,0.3714812882757259,0.2550777889551123,7652.078590864415,215.42922968005388,414.3333333333333,10518,1.5378613998576114,0.1117268891785006,0.6539009076084092,0.4931352212586158,0.219010887483839,0.1856715458517637,1.0968806021226578,0.8367191617730386,0.3648571364199969,1.0,MANUAL,7,50.0,3.0,15.0,3.0,3.0,5.0,47,12,16,14,11,26.0,1,1.0
01-05-19_11-25-36_manual.txt,1,0.3776439019399102,0.2709414553200859,0.1426196706614225,4278.447500172015,225.7359995106779,406.06666666666666,11922,1.493532494738504,0.0792170549261408,0.4447710984489797,0.3588537278427259,0.1818868000084603,0.1339019685643538,0.7770685130950163,0.6208101664559437,0.3005047924010112,1.0,MANUAL,7,50.0,3.0,15.0,3.0,3.0,5.0,47,12,16,14,11,26.0,1,1.0
01-05-19_11-25-36_manual.txt,1,0.3456992751419868,0.2432790054243346,0.1195119725661139,3585.239665010852,224.49510262692635,404.26666666666665,12395,1.4288265840699466,0.0676928208939539,0.3819399447179542,0.3221989159640092,0.1683140253120351,0.1176232850412058,0.6779574102101313,0.5697823298397375,0.2817229858408948,1.0,MANUAL,7,50.0,3.0,15.0,3.0,3.0,5.0,47,12,16,14,11,26.0,1,1.0
01-05-19_11-25-36_manual.txt,1,0.2810652084269492,0.2060099694704373,0.0790002847309087,2369.9295416425325,237.16694375101665,395.6333333333333,13155,1.3031825821909426,0.0498803942380999,0.2741244069275567,0.2759436869245778,0.1624688465506318,0.0847149202928132,0.4824248207375661,0.4706196048137239,0.2666490228992668,1.0,MANUAL,7,50.0,3.0,15.0,3.0,3.0,5.0,47,12,16,14,11,26.0,1,1.0
01-05-19_11-25-36_manual.txt,1,0.5903963701514439,0.240234331813804,0.3485794932044408,10457.03621664002,204.83407993998784,422.5333333333333,14342,1.5847446717371232,0.0595355570594243,0.3152371966091877,0.3244806912391014,0.1780248125526229,0.1953155270287797,1.026426802158917,0.9055354311130408,0.3591658386359891,1.0,MANUAL,7,50.0,3.0,15.0,3.0,3.0,5.0,47,12,16,14,11,26.0,1,1.0
01-05-19_11-25-36_manual.txt,1,0.1294645200239681,0.1042363975123854,0.0167616206657253,502.8318583510934,288.0531278260583,376.4,17205,1.0036762524484188,0.0158106801973302,0.0665763543034604,0.1150338566498604,0.1152828328248248,0.0261962107974021,0.1188579705771423,0.1843268294430141,0.1824265991105165,1.0,MANUAL,7,50.0,3.0,15.0,3.0,3.0,5.0,47,12,16,14,11,26.0,1,1.0
01-05-19_11-25-36_manual.txt,1,0.124656594693219,0.1014587675110589,0.0155397845933292,466.1779980152844,277.4876065907678,380.9666666666666,15752,1.0843635005678776,0.0163920412093176,0.0675200150256857,0.1256652931667313,0.1036968406937181,0.0265600676024122,0.1140859300320082,0.2018741495017229,0.1651611319824686,1.0,MANUAL,7,50.0,3.0,15.0,3.0,3.0,5.0,47,12,16,14,11,26.0,1,1.0
01-05-19_10-03-03_manual.txt,1,0.4289330613504896,0.2784465439987525,0.1839897041096398,5519.507133585085,208.29128378089703,417.4333333333333,11763,1.518697487452329,0.0858378160076974,0.4570765547199225,0.3784908729782955,0.1686347749955058,0.1572045148262081,0.8611866463726074,0.69878544650301,0.2940270904216389,1.0,MANUAL,2,27.0,1.0,6.0,1.0,1.0,1.0,4,12,16,14,11,26.0,1,1.0
01-05-19_10-03-03_manual.txt,1,0.519978884800877,0.3698844913273931,0.2703870535405483,8111.34121916291,204.67873789374005,420.6333333333333,10054,1.5364888192760275,0.1176957002809714,0.6476042425057047,0.5048989850812335,0.2020932661407357,0.2007743922013627,1.11996876008695,0.8783358962578157,0.3444216654340623,1.0,MANUAL,2,27.0,1.0,6.0,1.0,1.0,1.0,4,12,16,14,11,26.0,1,1.0
01-05-19_10-03-03_manual.txt,1,0.4806404564669456,0.3431307692875345,0.2310229491577257,6930.457451782616,205.2705213386259,420.4,10269,1.514074101159611,0.103102994814403,0.5847679932964236,0.4754140411645088,0.1931320864734705,0.171302095481005,0.9964695263686764,0.8144266887491739,0.326087791282127,1.0,MANUAL,2,27.0,1.0,6.0,1.0,1.0,1.0,4,12,16,14,11,26.0,1,1.0
01-05-19_10-03-03_manual.txt,1,0.3905963114442,0.2808288033133274,0.1525705641992878,4576.964355414436,209.79199050313875,415.3666666666667,10455,1.5104614150374631,0.0865973555813357,0.480507063139773,0.382099773186267,0.1656888793576518,0.1484691203652283,0.8153484406439092,0.6544229563118441,0.2785696149320493,1.0,MANUAL,2,27.0,1.0,6.0,1.0,1.0,1.0,4,12,16,14,11,26.0,1,1.0
01-05-19_10-03-03_manual.txt,1,0.2752618706683189,0.196942565756563,0.0757716231645944,2273.0729233146694,221.6953490343701,405.6666666666667,11757,1.4501215099198863,0.0591534880124573,0.3099869637578124,0.2658966399966267,0.1339101160358588,0.10448469539222,0.5383624743361383,0.4578817143603943,0.2221436205290589,1.0,MANUAL,2,27.0,1.0,6.0,1.0,1.0,1.0,4,12,16,14,11,26.0,1,1.0
01-05-19_10-03-03_manual.txt,1,0.2746908207022841,0.2013396530917736,0.0754575622301687,2263.6514093428323,222.4448985868588,407.5333333333333,11401,1.4587845978688512,0.0586604688640151,0.3205516127325313,0.2758631644362851,0.1315976632665033,0.1000996031650614,0.5411041468439975,0.4703796280945139,0.2187550933421491,1.0,MANUAL,2,27.0,1.0,6.0,1.0,1.0,1.0,4,12,16,14,11,26.0,1,1.0
01-05-19_10-03-03_manual.txt,1,0.2501374207165459,0.1795799816486921,0.0625708149365574,1877.061877281788,225.55415546745908,404.4,12133,1.4395236678661638,0.0501910161444872,0.2722332938814589,0.2432928635595835,0.1250178000430469,0.0872268076159189,0.4781907873931968,0.4188820936031411,0.2080037537849561,1.0,MANUAL,2,27.0,1.0,6.0,1.0,1.0,1.0,4,12,16,14,11,26.0,1,1.0
01-05-19_10-03-03_manual.txt,1,0.3813349692810989,0.2559228774009365,0.1454212061701557,4362.4907638985005,212.5432241566209,415.5,11570,1.519575797547556,0.0736539879197378,0.4154655856815673,0.3506775956406971,0.1607175104159395,0.1310826203368854,0.7715961015543467,0.623528280513697,0.2763664909449402,1.0,MANUAL,2,27.0,1.0,6.0,1.0,1.0,1.0,4,12,16,14,11,26.0,1,1.0
01-05-19_10-03-03_manual.txt,1,0.41039927177573,0.2649209884966682,0.1684331767132732,5052.826868221485,210.33771927229503,417.0333333333333,11512,1.5187917568303455,0.0766226030970359,0.4219151388756734,0.3671524534005346,0.1626199726503815,0.1391661983651381,0.7830643686984408,0.692116624299262,0.284330622777387,1.0,MANUAL,2,27.0,1.0,6.0,1.0,1.0,1.0,4,12,16,14,11,26.0,1,1.0
01-05-19_10-03-03_manual.txt,1,0.1818483568542544,0.1264848316323141,0.0330699272214996,992.0647467177682,238.6394792437245,391.6333333333333,14784,1.273936256785945,0.0288277035849827,0.1484037411556729,0.1593105453886493,0.109556001061123,0.0557469759626147,0.2981420207844971,0.2876987776046984,0.1796076382303032,1.0,MANUAL,2,27.0,1.0,6.0,1.0,1.0,1.0,4,12,16,14,11,26.0,1,1.0
01-05-19_09-52-39_manual.txt,1,0.3048901781928226,0.2228371925416467,0.0929611194624332,2788.7406227535344,208.7852300349421,416.5333333333333,10231,1.5040447414295253,0.0697648457031082,0.3802979275114944,0.3062577190290885,0.1283818357705077,0.1173316664056732,0.628083444558495,0.5203881699933094,0.2159631609116916,1.0,MANUAL,1,27.0,1.0,7.0,2.0,2.0,1.0,17,12,16,14,11,26.0,1,1.0
01-05-19_09-52-39_manual.txt,1,0.5703661805579928,0.3995443254033854,0.3253284242051197,9759.527397729384,199.25020445268973,425.73333333333335,9528,1.5505308411023515,0.1282921279952454,0.7196026021810058,0.5468722444545348,0.2032851563148623,0.2210900991689049,1.2502459748133126,0.9523292578289396,0.3496069889785879,1.0,MANUAL,1,27.0,1.0,7.0,2.0,2.0,1.0,17,12,16,14,11,26.0,1,1.0
01-05-19_09-52-39_manual.txt,1,0.5441446481494534,0.3843727845730336,0.2961032682186331,8882.801943290773,200.63259941677384,424.56666666666666,9563,1.5682783480399816,0.1189509693606865,0.6978464502478815,0.5226138068466079,0.1990211071006295,0.2006658256595484,1.1894622836740227,0.9083788791209592,0.3431427459513237,1.0,MANUAL,1,27.0,1.0,7.0,2.0,2.0,1.0,17,12,16,14,11,26.0,1,1.0
01-05-19_09-52-39_manual.txt,1,0.4492681760163255,0.3134608674134433,0.2018486222684449,6055.256819431081,202.90383778445744,422.23333333333335,9860,1.5527167379918163,0.1019404702550112,0.5651573370032045,0.4261330974185661,0.1667132753212563,0.1734124753096304,0.9749123871800052,0.7463318885986119,0.2899138087582681,1.0,MANUAL,1,27.0,1.0,7.0,2.0,2.0,1.0,17,12,16,14,11,26.0,1,1.0
01-05-19_09-52-39_manual.txt,1,0.4114528345486917,0.3082731940457182,0.1692990783607651,5078.803051744593,205.38034465488067,420.76666666666665,9621,1.5480391055580562,0.0954358488445284,0.5340506394604636,0.4278213616521792,0.164808216297704,0.1538714838863748,0.8718631103645227,0.7137773835210202,0.2780764988111501,1.0,MANUAL,1,27.0,1.0,7.0,2.0,2.0,1.0,17,12,16,14,11,26.0,1,1.0
01-05-19_09-52-39_manual.txt,1,0.2813308583434659,0.2037419299516005,0.0791496901792772,2374.4115556881384,214.631248243796,413.9333333333333,10545,1.5389881860339545,0.0614179116565779,0.3416086003188915,0.2805765530468997,0.1192472412776182,0.1036309595630897,0.5791528718742608,0.479118168384688,0.201861412725292,1.0,MANUAL,1,27.0,1.0,7.0,2.0,2.0,1.0,17,12,16,14,11,26.0,1,1.0
01-05-19_09-52-39_manual.txt,1,0.238887254950817,0.1676348794003274,0.0570690228786993,1712.0136173381004,222.7451515136212,408.0333333333333,12058,1.4815476871337507,0.0464232357215781,0.2513768138839653,0.2317978775899134,0.1135106753792097,0.0817280591997354,0.4483758217479588,0.404609166978624,0.1908855475761494,1.0,MANUAL,1,27.0,1.0,7.0,2.0,2.0,1.0,17,12,16,14,11,26.0,1,1.0
01-05-19_09-52-39_manual.txt,1,0.2198447230075029,0.15756243680987,0.0483333133446905,1449.9510670273703,235.12188817937147,399.0333333333333,12829,1.3549698665548016,0.036244302119716,0.2039411066901413,0.2196139722334861,0.1206673802401029,0.0610572639407604,0.358695914283193,0.3776812785376547,0.2003121030552528,1.0,MANUAL,1,27.0,1.0,7.0,2.0,2.0,1.0,17,12,16,14,11,26.0,1,1.0
01-05-19_09-52-39_manual.txt,1,0.2954044910379795,0.2080668270589055,0.0872667222161482,2617.914399762231,223.65394113136335,406.9,12064,1.4602428638961555,0.0557992842065347,0.3122659598233107,0.2845770676252853,0.1421190965334755,0.0969851936125594,0.5621243557951349,0.5007932840665433,0.2390668010137868,1.0,MANUAL,1,27.0,1.0,7.0,2.0,2.0,1.0,17,12,16,14,11,26.0,1,1.0
01-05-19_09-52-39_manual.txt,1,0.1670535877385965,0.1174582890787503,0.0279078314373848,837.2070352901094,238.4661254500637,393.9333333333333,13084,1.3964639139983372,0.0326284383919811,0.1604791084123616,0.1560890545713223,0.0904462055417683,0.0586793461130635,0.2909023006237999,0.2768950533326723,0.1520051230618045,1.0,MANUAL,1,27.0,1.0,7.0,2.0,2.0,1.0,17,12,16,14,11,26.0,1,1.0
01-05-19_12-06-48_manual.txt,1,0.616999004893529,0.4340223394622552,0.3807004620550068,11420.63316118815,203.4070863901552,424.1333333333333,9717,1.5444005189054288,0.1229782907767316,0.7859470310688329,0.5899236346954281,0.2263946074373205,0.2081348608203875,1.3618685368096253,1.0249196258344444,0.3938491521890502,1.0,MANUAL,10,63.0,4.0,21.0,5.0,3.0,7.0,64,12,16,14,11,26.0,1,1.0
01-05-19_12-06-48_manual.txt,1,0.6480369726679274,0.4634550416033298,0.4199659168085057,12598.557538338362,203.59740150151347,423.3666666666667,9860,1.5583342739351091,0.1341506945719138,0.8127660519900314,0.6407160334685598,0.247161806114499,0.2229270132495871,1.390715708079166,1.1042877275256346,0.4190521232051523,1.0,MANUAL,10,63.0,4.0,21.0,5.0,3.0,7.0,64,12,16,14,11,26.0,1,1.0
01-05-19_12-06-48_manual.txt,1,0.583000468336956,0.4329391876183165,0.3399008761103137,10196.6863824333,206.35059434071027,420.6666666666667,9720,1.539325774153836,0.1310165832876338,0.7724878434683041,0.5839895462857562,0.2355073024658334,0.2125328072399171,1.269423953884669,0.9860879904454748,0.3946044299550126,1.0,MANUAL,10,63.0,4.0,21.0,5.0,3.0,7.0,64,12,16,14,11,26.0,1,1.0
01-05-19_12-06-48_manual.txt,1,0.4313753514188569,0.3060328656209413,0.186090896841637,5582.54081435227,211.9386025678208,415.6666666666667,10993,1.4877440750799744,0.0870595562979635,0.4963908243457483,0.4171223048832721,0.1848166350378911,0.1476435121018743,0.8628912701404284,0.7266999885843904,0.313481135569063,1.0,MANUAL,10,63.0,4.0,21.0,5.0,3.0,7.0,64,12,16,14,11,26.0,1,1.0
01-05-19_12-06-48_manual.txt,1,0.2681173680653052,0.2022497961186077,0.0718893193689119,2156.607691747989,244.54166454050585,389.6,13515,1.2538668347974358,0.0476802624594842,0.255774051701153,0.2660907518983509,0.1688117744842665,0.0786827207739988,0.4329142467869525,0.4447347270653115,0.2753377801587849,1.0,MANUAL,10,63.0,4.0,21.0,5.0,3.0,7.0,64,12,16,14,11,26.0,1,1.0
01-05-19_12-06-48_manual.txt,1,0.2828477551414354,0.2102412261328314,0.0800055194391974,2400.0855776564827,244.15480645751367,390.73333333333335,13656,1.2850012805185715,0.050730701141551,0.2761574951046393,0.2751299768708412,0.1730176259408599,0.0859964541760168,0.4796161014556594,0.4659711555969761,0.2814626592589673,1.0,MANUAL,10,63.0,4.0,21.0,5.0,3.0,7.0,64,12,16,14,11,26.0,1,1.0
01-05-19_12-06-48_manual.txt,1,0.3438426410288017,0.2349398776733588,0.1182317028464229,3546.832853689842,228.5850484852356,403.6333333333333,13330,1.426510792052778,0.0636191240158837,0.3485015582428959,0.3068654234039184,0.1727011881679685,0.1120342762936694,0.6566961683608801,0.5513595992008952,0.2879931653533376,1.0,MANUAL,10,63.0,4.0,21.0,5.0,3.0,7.0,64,12,16,14,11,26.0,1,1.0
01-05-19_12-06-48_manual.txt,1,0.1798716385520673,0.1389575417152789,0.0323548848515672,970.6141906621666,255.52304276688744,382.3,15096,1.1239110804165964,0.0314447855254128,0.158223277169988,0.1692212697902101,0.1282801625207233,0.0530093889135643,0.2820911639740596,0.2845975679055118,0.2049621199000273,1.0,MANUAL,10,63.0,4.0,21.0,5.0,3.0,7.0,64,12,16,14,11,26.0,1,1.0
01-05-19_12-06-48_manual.txt,1,0.1671588184652923,0.1277562291854674,0.0279430020241133,838.262117721377,259.72532952354493,379.56666666666666,15642,1.1037695708837172,0.0250725148962619,0.1231579247694859,0.1540644121555111,0.1237366003689767,0.0447744277100546,0.2315044201408921,0.2628401202043067,0.1974057468877839,1.0,MANUAL,10,63.0,4.0,21.0,5.0,3.0,7.0,64,12,16,14,11,26.0,1,1.0
