filename,patient,rmse,mav,var,energy,mnf,mdf,zc,fr,mav_arr_0,mav_arr_1,mav_arr_2,mav_arr_3,std_0,std_1,std_2,std_3,ID,Task,File_number,STAI_Total,Fatigue,Stress,Mental_Demand,Physical_Demand,Frustration,NASA_Total,PSS,NARS_S1,NARS_S2,NARS_S3,Age,Sex,Experience
01-05-18_11-52-23_cobot.txt,1,0.4202756670760171,0.3345983570206999,0.1766375242536663,5298.949090085736,260.54201701156984,383.1333333333333,14123,1.209320076831483,0.0667752123930915,0.313624604220998,0.4471318731827651,0.302812030867925,0.1107673593723271,0.5294856964860679,0.7267626769008835,0.4893268324037371,1.0,COBOT,10,58.0,3.0,15.0,3.0,5.0,6.0,63,12,16,14,11,26.0,1,1.0
01-05-18_11-52-23_cobot.txt,1,0.5498744950149206,0.420535466554267,0.3023720393358918,9070.858808037416,260.7649255067108,380.8,14921,1.152835549099819,0.0867200937059984,0.4195328534373668,0.5352681946901563,0.3981377868689998,0.1510492321170852,0.7307420305285393,0.891737838599148,0.644465396094104,1.0,COBOT,10,58.0,3.0,15.0,3.0,5.0,6.0,63,12,16,14,11,26.0,1,1.0
01-05-18_11-52-23_cobot.txt,1,0.6220779360871284,0.4744581267390991,0.3869938583617001,11609.428756992642,256.10454757718185,380.0,15104,1.1644969238199852,0.1090485852642804,0.5352602439505775,0.5893407012435429,0.4451159336193447,0.1875762936209822,0.9461262923232392,0.9905403292783908,0.7113711729604492,1.0,COBOT,10,58.0,3.0,15.0,3.0,5.0,6.0,63,12,16,14,11,26.0,1,1.0
01-05-18_11-52-23_cobot.txt,1,0.6188459922458164,0.4727226769038458,0.3829831282229831,11489.11086356127,252.25485711072,385.8,14615,1.1786186504468126,0.1076116801246036,0.5144971244999585,0.6174561803477155,0.4245393341206437,0.1818322169012267,0.8819694589251663,1.030920035175564,0.6887784371031819,1.0,COBOT,10,58.0,3.0,15.0,3.0,5.0,6.0,63,12,16,14,11,26.0,1,1.0
01-05-18_11-52-23_cobot.txt,1,0.5504127779971854,0.4259310197580604,0.3029643249934119,9088.626785477363,254.1180123332472,385.56666666666666,14337,1.2080162974500868,0.0914288556018045,0.4287604018631077,0.5661864946434109,0.383235250944167,0.1533638625282635,0.7253904716281968,0.9435347095288552,0.6181404599310101,1.0,COBOT,10,58.0,3.0,15.0,3.0,5.0,6.0,63,12,16,14,11,26.0,1,1.0
01-05-18_11-52-23_cobot.txt,1,0.5080381326552447,0.4034871712575733,0.2581113479434261,7743.082326954839,253.0570867668851,385.4,13960,1.227300368873678,0.0914728483662572,0.4249571257153628,0.5415638474308061,0.3546639901656701,0.1461620841735791,0.7121841641938716,0.8762692850999523,0.5685738911708402,1.0,COBOT,10,58.0,3.0,15.0,3.0,5.0,6.0,63,12,16,14,11,26.0,1,1.0
01-05-18_11-52-23_cobot.txt,1,0.6210296043295229,0.4740059089259463,0.3856906258078774,11570.333083610514,248.3088270092352,387.1,13793,1.222628599029069,0.1061149266667968,0.5390372602577967,0.6376137525355183,0.407047569544346,0.1808751154631849,0.9164674611878,1.0604170072469614,0.6626564665877224,1.0,COBOT,10,58.0,3.0,15.0,3.0,5.0,6.0,63,12,16,14,11,26.0,1,1.0
01-05-18_10-21-42_cobot.txt,1,0.3416894123366779,0.2407509949472493,0.1167555463545294,3502.5496350895287,268.4471960487419,378.73333333333335,18131,1.1535031411215502,0.0491497061882819,0.2428436017978393,0.2614495261102572,0.2550061728569518,0.1025719514317544,0.5147456335422413,0.4789214988720427,0.4080446871184287,1.0,COBOT,3,57.0,2.0,14.0,2.0,3.0,3.0,51,12,16,14,11,26.0,1,1.0
01-05-18_10-21-42_cobot.txt,1,0.8516115292561462,0.5960564830675673,0.7252663723077357,21757.265902859763,222.15707237198305,409.9666666666666,12061,1.5171552033549862,0.1619681218435847,0.9622809875268626,0.8109904699579389,0.3914902825952199,0.2753473111414133,1.701729051864019,1.4256837109338711,0.6551359871497315,1.0,COBOT,3,57.0,2.0,14.0,2.0,3.0,3.0,51,12,16,14,11,26.0,1,1.0
01-05-18_10-21-42_cobot.txt,1,0.4905339649785223,0.3469189043792358,0.2406315918506119,7218.707123926506,248.8315441964657,389.1666666666667,15277,1.3409859686697698,0.0810470841658915,0.4597537112828607,0.4246326678436208,0.3009076694444703,0.1410837400595825,0.8706958458931372,0.7560359299775592,0.4889388588590863,1.0,COBOT,3,57.0,2.0,14.0,2.0,3.0,3.0,51,12,16,14,11,26.0,1,1.0
01-05-18_10-21-42_cobot.txt,1,0.3486374658799363,0.2701331723946173,0.1215521343529955,3646.4424784555126,273.5773598994455,380.06666666666666,16383,1.1510392633645428,0.0534867072219344,0.2978215435892232,0.3235434845758351,0.2670406829882583,0.0895228330215955,0.4925921709620779,0.538779576104063,0.4209069447509108,1.0,COBOT,3,57.0,2.0,14.0,2.0,3.0,3.0,51,12,16,14,11,26.0,1,1.0
01-05-18_10-21-42_cobot.txt,1,0.2953806469344373,0.2324166239855429,0.0872526350045735,2617.491797502201,279.9260747248901,377.4,17107,1.0843973580425972,0.0469105547555616,0.245253024058186,0.2607052209258764,0.2402107813900844,0.0785752856609545,0.4094918914386937,0.430185028972905,0.3787411914163141,1.0,COBOT,3,57.0,2.0,14.0,2.0,3.0,3.0,51,12,16,14,11,26.0,1,1.0
01-05-18_10-21-42_cobot.txt,1,0.3478157766022574,0.2685153090291294,0.1209798471150019,3629.274433602942,271.1516884830056,376.76666666666665,15926,1.1436667791504889,0.0558517567609227,0.2850665335914755,0.3277204040999308,0.2626783298837867,0.0939830324426804,0.4855606097219663,0.5522479642580004,0.4186990381804421,1.0,COBOT,3,57.0,2.0,14.0,2.0,3.0,3.0,51,12,16,14,11,26.0,1,1.0
01-05-18_10-21-42_cobot.txt,1,0.3356263147210072,0.2496722202019085,0.1126487780924743,3379.3506939961367,279.09419600384086,376.2,18057,1.1031940498216966,0.0459413966997842,0.2444034163961196,0.2692320272481602,0.2676579520844077,0.080915095688489,0.4322849662232088,0.483566036421096,0.4285759601322061,1.0,COBOT,3,57.0,2.0,14.0,2.0,3.0,3.0,51,12,16,14,11,26.0,1,1.0
01-05-18_09-55-47_cobot.txt,1,0.1946485039351355,0.1466864368856817,0.0378893030609551,1136.6412025255936,260.84175567142785,380.73333333333335,15945,1.1554666105937104,0.0314131221464825,0.1808199646015477,0.1715393696550226,0.139551910346759,0.0543489493803528,0.3171836619303863,0.2923500080809342,0.221001799731546,1.0,COBOT,1,56.0,1.0,16.0,2.0,4.0,4.0,53,12,16,14,11,26.0,1,1.0
01-05-18_09-55-47_cobot.txt,1,0.4094480538712828,0.2798621102495192,0.1676532972622229,5029.431264569427,221.10773658214717,408.8666666666667,12326,1.4658080505061093,0.0774874902268171,0.4377955128394863,0.3746971003138997,0.1913765040520473,0.1319931529606985,0.8109820814420999,0.6664409778989866,0.3228705313263621,1.0,COBOT,1,56.0,1.0,16.0,2.0,4.0,4.0,53,12,16,14,11,26.0,1,1.0
01-05-18_09-55-47_cobot.txt,1,0.3327778028496797,0.2351225295135828,0.110744757561379,3322.2319820838093,227.9792122117,401.1333333333333,12692,1.3557729985646598,0.0625765067458939,0.3365795516024644,0.318940681158719,0.173215510565287,0.1106374886273495,0.5940438309440843,0.56156559391938,0.2871221334087221,1.0,COBOT,1,56.0,1.0,16.0,2.0,4.0,4.0,53,12,16,14,11,26.0,1,1.0
01-05-18_09-55-47_cobot.txt,1,0.2196075038335762,0.1652995958855282,0.04822906337546,1446.8236722004262,248.6020880082525,386.9,14170,1.2175121791978614,0.0373887972976564,0.2023727077514349,0.2158427764156998,0.1434120013545984,0.0630241065933074,0.3508598238021084,0.3602474742060179,0.2300136479130743,1.0,COBOT,1,56.0,1.0,16.0,2.0,4.0,4.0,53,12,16,14,11,26.0,1,1.0
01-05-18_09-55-47_cobot.txt,1,0.3168501348662007,0.2039218197355518,0.1003973545432143,3011.820238941886,237.0559004177617,394.8,14834,1.3545735684712588,0.0508251470181516,0.2597745249352299,0.2630980150148973,0.1710593603587419,0.1042846855279721,0.5377838118227471,0.5017592916026248,0.286964576356654,1.0,COBOT,1,56.0,1.0,16.0,2.0,4.0,4.0,53,12,16,14,11,26.0,1,1.0
01-05-18_09-55-47_cobot.txt,1,0.4039279196161794,0.2356877114459912,0.1631632030188887,4894.732927363642,219.62235658607617,408.6333333333333,13602,1.473322567769093,0.065433370386714,0.3410621967645171,0.3109475687641876,0.1741485322371993,0.1402056768851703,0.7076720381806838,0.6406956143574641,0.3106158033017869,1.0,COBOT,1,56.0,1.0,16.0,2.0,4.0,4.0,53,12,16,14,11,26.0,1,1.0
01-05-18_09-55-47_cobot.txt,1,0.3946594389318333,0.2527281974284855,0.1557612647801488,4672.682182139684,216.01538010031703,412.4333333333333,12755,1.4630979274693,0.0706246758774953,0.3893757372234884,0.3382933615724469,0.170100914439053,0.1345343166927552,0.7831158864392157,0.6300363690592999,0.2914981187234317,1.0,COBOT,1,56.0,1.0,16.0,2.0,4.0,4.0,53,12,16,14,11,26.0,1,1.0
01-05-18_09-55-47_cobot.txt,1,0.3041964283708145,0.2171948543317964,0.0925385516519484,2776.0640110068025,228.17271440089675,401.6666666666667,12499,1.3480010806597833,0.0602055372343244,0.3236223461031223,0.2909557742643652,0.1570378592975598,0.1027528501170482,0.5717335685545357,0.5044271473182551,0.2608666207696206,1.0,COBOT,1,56.0,1.0,16.0,2.0,4.0,4.0,53,12,16,14,11,26.0,1,1.0
01-05-18_09-55-47_cobot.txt,1,0.6077600772276115,0.2507696840032396,0.369384624292522,11081.169344151367,206.7012422294937,419.9666666666666,14273,1.5557031825000351,0.0674281341436903,0.3569962014538826,0.338707703175115,0.1756989082431553,0.1873598316664305,1.078788902811784,0.923456633414485,0.3622416410848225,1.0,COBOT,1,56.0,1.0,16.0,2.0,4.0,4.0,53,12,16,14,11,26.0,1,1.0
01-05-18_09-55-47_cobot.txt,1,0.6595564974233976,0.379921141595209,0.4350292742692292,13050.443198802608,209.9166681157468,416.8666666666667,12156,1.4936863888828844,0.113367156576895,0.5988202805458931,0.5208587569290569,0.2422299125802587,0.2329604849594456,1.3023981656423955,1.0406685325185794,0.4456369980787314,1.0,COBOT,1,56.0,1.0,16.0,2.0,4.0,4.0,53,12,16,14,11,26.0,1,1.0
01-05-18_12-13-12_cobot.txt,1,0.2709471373693581,0.2098641684363159,0.0734147984085967,2202.370537459494,258.3364128037408,384.7,13836,1.212068318322662,0.0442017471473259,0.1989659012349327,0.2862324906580458,0.1867498424597618,0.0729730294164789,0.331640952424994,0.4695449412081302,0.3077934527775618,1.0,COBOT,11,59.0,3.0,17.0,3.0,5.0,6.0,63,12,16,14,11,26.0,1,1.0
01-05-18_12-13-12_cobot.txt,1,0.3703442627577258,0.2809861568456063,0.1371594449390615,4114.646188726905,245.50034382122,390.8,13372,1.269726092460456,0.0621367476164905,0.2977098274555567,0.3948501984046003,0.2343814124423116,0.1036006462141778,0.5114590587469221,0.6519950171084431,0.38397675150919,1.0,COBOT,11,59.0,3.0,17.0,3.0,5.0,6.0,63,12,16,14,11,26.0,1,1.0
01-05-18_12-13-12_cobot.txt,1,0.4127998561931867,0.2976598824970008,0.1704094015865019,5112.11163819347,233.5328155204861,399.4333333333333,12648,1.3598523492314212,0.0714410881701887,0.3806778626186418,0.4158573138345471,0.2257888787514597,0.1242862563120327,0.6894883194289171,0.709921001201077,0.3734411931219885,1.0,COBOT,11,59.0,3.0,17.0,3.0,5.0,6.0,63,12,16,14,11,26.0,1,1.0
01-05-18_12-13-12_cobot.txt,1,0.4569371139193445,0.3307743604873979,0.2087984860264742,6263.7457823082,235.64291946401,395.9333333333333,13011,1.316443086646394,0.0777257663465337,0.4101016856240423,0.4577846129611264,0.2630176776838271,0.1328332994760732,0.711495218213617,0.7938767034071086,0.4331635849364515,1.0,COBOT,11,59.0,3.0,17.0,3.0,5.0,6.0,63,12,16,14,11,26.0,1,1.0
01-05-18_12-13-12_cobot.txt,1,0.4985129315939543,0.3746516762715283,0.2485234270806345,7455.454288991957,232.80065482009053,398.76666666666665,12237,1.33556765925582,0.0894686514443099,0.5201249912841645,0.5164042977532642,0.2760884931028962,0.1489322289955358,0.8824250382491021,0.853074697895848,0.4556054191806127,1.0,COBOT,11,59.0,3.0,17.0,3.0,5.0,6.0,63,12,16,14,11,26.0,1,1.0
01-05-18_12-13-12_cobot.txt,1,0.6713466040100303,0.4814098315130072,0.4507212867586924,13521.187881474012,216.52340574419503,412.5333333333333,11020,1.4468823119688314,0.1299141764781186,0.7736810807351936,0.6688778376331007,0.2989638477445973,0.2138006314116629,1.3042213037107533,1.150934858867524,0.5037209749559806,1.0,COBOT,11,59.0,3.0,17.0,3.0,5.0,6.0,63,12,16,14,11,26.0,1,1.0
01-05-18_12-13-12_cobot.txt,1,0.5967521192187795,0.425933481495019,0.3561249626241918,10683.39275376313,223.46846171397655,407.0,11730,1.372972410720873,0.1099029402798391,0.6349589476473638,0.5875558552540109,0.2902668974864767,0.1900456397345076,1.103144847332036,1.0102989401898763,0.4897881642639471,1.0,COBOT,11,59.0,3.0,17.0,3.0,5.0,6.0,63,12,16,14,11,26.0,1,1.0
01-05-18_11-42-43_cobot.txt,1,0.4685957382149272,0.3567601209952027,0.2195892855160431,6587.458976195778,242.382499301406,391.4333333333333,12770,1.3134661061563642,0.089473314200655,0.4563116132461386,0.4872754582275874,0.2809935097194471,0.1488394313610221,0.7765113435611743,0.806749648518172,0.4614488955824757,1.0,COBOT,9,59.0,3.0,15.0,3.0,4.0,6.0,63,12,16,14,11,26.0,1,1.0
01-05-18_11-42-43_cobot.txt,1,0.5038131719702675,0.3641903034889571,0.2538361734565242,7614.831367522271,240.5903148443367,394.5,12737,1.4052289165465313,0.0882739635286546,0.4802383046302863,0.5000363571857928,0.2810435543838551,0.148994346251789,0.8450609632686056,0.8594112063739763,0.4664535950272285,1.0,COBOT,9,59.0,3.0,15.0,3.0,4.0,6.0,63,12,16,14,11,26.0,1,1.0
01-05-18_11-42-43_cobot.txt,1,0.580211750743456,0.4166876136697532,0.3366568975973729,10099.37027102359,241.09562506114275,393.23333333333335,12889,1.351683048649615,0.1011789237402806,0.5473629294305381,0.5672031206530737,0.3251398923113638,0.1705067021415492,0.9652941948766998,0.9645785185697904,0.5461852545464083,1.0,COBOT,9,59.0,3.0,15.0,3.0,4.0,6.0,63,12,16,14,11,26.0,1,1.0
01-05-18_11-42-43_cobot.txt,1,0.4720113115426166,0.3539978555513669,0.2228021049610131,6683.840346725432,248.21053073175597,389.8333333333333,13238,1.2902688602705163,0.0803777121275379,0.4086979961884327,0.4887543192880529,0.2923564727353323,0.1349575069949886,0.6918995092607074,0.8214983191332305,0.4806263879523161,1.0,COBOT,9,59.0,3.0,15.0,3.0,4.0,6.0,63,12,16,14,11,26.0,1,1.0
01-05-18_11-42-43_cobot.txt,1,0.511039475178197,0.3774227510616461,0.261170050858769,7834.840355712211,241.6251006196458,392.1,12978,1.3042297633975424,0.0874595019809063,0.4495658776598353,0.518951506764319,0.3061004645950673,0.1550396430580759,0.8059938622959332,0.8689231387462921,0.5042714125530774,1.0,COBOT,9,59.0,3.0,15.0,3.0,4.0,6.0,63,12,16,14,11,26.0,1,1.0
01-05-18_11-42-43_cobot.txt,1,0.5240043979239459,0.4020693802318907,0.2745897620357049,8237.418271309112,249.9299861992823,388.4666666666666,13394,1.2577495777201655,0.0928124568947775,0.4377389494968319,0.5518121551661819,0.343036957527784,0.1539476251434102,0.7384731706465765,0.9105732737380277,0.5626619528944654,1.0,COBOT,9,59.0,3.0,15.0,3.0,4.0,6.0,63,12,16,14,11,26.0,1,1.0
01-05-18_11-42-43_cobot.txt,1,0.5264573021569201,0.4046628182023166,0.277166529878672,8314.718729830282,250.0581086728226,389.26666666666665,13358,1.241761536069849,0.0928113090355522,0.4295767623809267,0.5624535204425928,0.3424901712089742,0.1547632184078415,0.710523560935028,0.9246983440552696,0.5636650487949608,1.0,COBOT,9,59.0,3.0,15.0,3.0,4.0,6.0,63,12,16,14,11,26.0,1,1.0
01-05-18_10-55-41_cobot.txt,1,0.3550830532883666,0.2765994231653459,0.1260881776718447,3782.519241977669,277.79998019079534,375.23333333333335,17485,1.065885755116169,0.0632010767422703,0.3102026057347532,0.2988745137079394,0.2916059140760449,0.1047776251824219,0.5231093492989753,0.507881865967596,0.4598919043822806,1.0,COBOT,5,60.0,2.0,16.0,3.0,4.0,5.0,60,12,16,14,11,26.0,1,1.0
01-05-18_10-55-41_cobot.txt,1,0.3683113586887037,0.2739627563969763,0.135657778865081,4069.5977081735673,277.9097496114193,377.73333333333335,18650,1.0958061008759383,0.0546895871789508,0.2548398158185316,0.2906393322438027,0.2968422899329228,0.0996705660412278,0.4878656115745525,0.5278335946038625,0.4667669588813163,1.0,COBOT,5,60.0,2.0,16.0,3.0,4.0,5.0,60,12,16,14,11,26.0,1,1.0
01-05-18_10-55-41_cobot.txt,1,0.409709964364107,0.3126261425480423,0.1678678504942543,5035.867646977136,275.3890875078076,376.1333333333333,17009,1.124604868473173,0.0591105631133042,0.3171755573192168,0.3642826411322687,0.3212843502489824,0.1003389690427646,0.5357693713081796,0.618743943413502,0.5124680893184653,1.0,COBOT,5,60.0,2.0,16.0,3.0,4.0,5.0,60,12,16,14,11,26.0,1,1.0
01-05-18_10-55-41_cobot.txt,1,0.8562519870643137,0.5540341449710429,0.733191905081755,21995.02396054757,229.85113672916825,403.5,13300,1.4432923392366093,0.1453243421241603,0.8591018711149667,0.7167280256080265,0.4084904825188277,0.2667170220261279,1.6574717620126609,1.3248181098738336,0.7012611615279117,1.0,COBOT,5,60.0,2.0,16.0,3.0,4.0,5.0,60,12,16,14,11,26.0,1,1.0
01-05-18_10-55-41_cobot.txt,1,0.368332454203843,0.2764681950928379,0.1356733192638015,4070.0639045947833,278.4050585268004,377.6,18026,1.094470357934623,0.0510478017313726,0.2683210901945478,0.2993435986631847,0.2950268541611507,0.0894306746331914,0.5057618452310042,0.522445507657958,0.467843434838268,1.0,COBOT,5,60.0,2.0,16.0,3.0,4.0,5.0,60,12,16,14,11,26.0,1,1.0
01-05-18_10-55-41_cobot.txt,1,0.4090448289928725,0.3045321884156033,0.1673232495674605,5019.530163774249,273.30508795211875,380.9333333333333,17348,1.155168420417375,0.0551638845945046,0.3082528720830433,0.3470100332323992,0.3140061118418753,0.0923694268721139,0.5882810603998533,0.6040265895183677,0.4982614329732462,1.0,COBOT,5,60.0,2.0,16.0,3.0,4.0,5.0,60,12,16,14,11,26.0,1,1.0
01-05-18_10-55-41_cobot.txt,1,0.3533494074269055,0.2762145806903643,0.1248599657278028,3745.6741118683576,286.71584452081004,376.7,18015,1.0532055038563184,0.0491854436013658,0.2633760802369088,0.2996678594977365,0.2995701099088338,0.0805835649238083,0.4489200166057455,0.5083578639210895,0.4708628165587057,1.0,COBOT,5,60.0,2.0,16.0,3.0,4.0,5.0,60,12,16,14,11,26.0,1,1.0
01-05-18_10-55-41_cobot.txt,1,0.3964904624906838,0.2941678955421013,0.1572099271769822,4716.14060538229,274.1888464108772,375.4333333333333,17553,1.1181605338777902,0.0536497357815453,0.2754722201195302,0.3332236824491335,0.3119920459643661,0.0946580683707776,0.5372665647088646,0.5838726243808067,0.4975701518288293,1.0,COBOT,5,60.0,2.0,16.0,3.0,4.0,5.0,60,12,16,14,11,26.0,1,1.0
01-05-18_11-32-07_cobot.txt,1,0.3407226546292085,0.2373573772530446,0.1160957972374828,3482.757821327247,231.523819724208,399.26666666666665,13043,1.3544530007720823,0.0594801348527734,0.3097651934877393,0.327317584671893,0.1828629782707894,0.1053782384603133,0.5818800921356138,0.5751078142447901,0.3044821804946966,1.0,COBOT,8,61.0,2.0,18.0,3.0,4.0,6.0,62,12,16,14,11,26.0,1,1.0
01-05-18_11-32-07_cobot.txt,1,0.5212919228011079,0.3703019512619813,0.2717543272552514,8152.358063330288,224.19672425101,406.06666666666666,12191,1.384927495199117,0.096673514415464,0.5633868101481466,0.5067843548289274,0.2579546395851429,0.1638666485321709,0.996027399229975,0.8767541310020183,0.4307080620792681,1.0,COBOT,8,61.0,2.0,18.0,3.0,4.0,6.0,62,12,16,14,11,26.0,1,1.0
01-05-18_11-32-07_cobot.txt,1,0.4096175532615125,0.2901565922990935,0.1677921330110483,5033.59619819844,239.2340844822888,393.8666666666667,13777,1.3212443903600517,0.0753398683130746,0.4302598842893362,0.36714749772488,0.2298086308384395,0.1279923753617826,0.7560800571447246,0.6575674084553272,0.3766087724315612,1.0,COBOT,8,61.0,2.0,18.0,3.0,4.0,6.0,62,12,16,14,11,26.0,1,1.0
01-05-18_11-32-07_cobot.txt,1,0.3664616680523014,0.2617862910106113,0.1342986307727008,4028.8246245502537,246.592394813478,388.3,14760,1.2563812917771862,0.0628957195132199,0.3400313827399591,0.3230500109402104,0.2304767935242475,0.1083649496507868,0.6291843177120122,0.5723918802693492,0.3745332317317149,1.0,COBOT,8,61.0,2.0,18.0,3.0,4.0,6.0,62,12,16,14,11,26.0,1,1.0
01-05-18_11-32-07_cobot.txt,1,0.4017965272690003,0.2826365709619435,0.1614458308531236,4843.213479762855,235.1692282468684,396.1333333333333,13660,1.303979759593421,0.0728060195818332,0.4188781209776989,0.3580408538539259,0.2226198367903524,0.1219713235391705,0.7481360644774397,0.6376781956710721,0.3675365981571961,1.0,COBOT,8,61.0,2.0,18.0,3.0,4.0,6.0,62,12,16,14,11,26.0,1,1.0
01-05-18_11-32-07_cobot.txt,1,0.4614260446601614,0.3139904991113219,0.2129210920604566,6387.41984072164,223.11107418428176,407.2,12220,1.3681387748779223,0.0828133309809922,0.4745997947264991,0.423950434341395,0.2232252104705939,0.1442818649376786,0.8924917739602686,0.7454544448925514,0.3784307596469106,1.0,COBOT,8,61.0,2.0,18.0,3.0,4.0,6.0,62,12,16,14,11,26.0,1,1.0
01-05-18_11-32-07_cobot.txt,1,0.65304212634775,0.4384962346346511,0.4264782347259482,12793.92056354372,210.0884137406809,417.1,11091,1.498800213712263,0.1221447169798775,0.7130857150110279,0.6138047473790881,0.2621661177342125,0.2123930262799176,1.277042051496624,1.110926554437724,0.4548079759005239,1.0,COBOT,8,61.0,2.0,18.0,3.0,4.0,6.0,62,12,16,14,11,26.0,1,1.0
01-05-18_10-11-38_cobot.txt,1,0.4350672805706571,0.3357403186267912,0.1892898482847563,5678.506158694406,263.2283478073331,378.8,15754,1.0873650274856153,0.0664675670616571,0.3143927540802042,0.4083664988331954,0.3315392863729719,0.1156454720091555,0.5640081870538232,0.6866696375819064,0.5331073607575949,1.0,COBOT,2,59.0,2.0,18.0,2.0,4.0,3.0,48,12,16,14,11,26.0,1,1.0
01-05-18_10-11-38_cobot.txt,1,0.6277523831483239,0.4556597769735679,0.3940861907547586,11822.191636452002,244.7853130658624,389.6666666666667,14063,1.257871908466769,0.1003619834008209,0.5060487353200963,0.6154813915136877,0.3875540829098043,0.1754168001762323,0.933140764984044,1.0673368552988374,0.6363952353596041,1.0,COBOT,2,59.0,2.0,18.0,2.0,4.0,3.0,48,12,16,14,11,26.0,1,1.0
01-05-18_10-11-38_cobot.txt,1,0.5634767404322294,0.4339880652513956,0.3175166208954931,9525.1811102439,251.43881144482245,385.1,14414,1.1949689543824122,0.0905065766898679,0.4772488540280754,0.5626743725580139,0.3886617820654796,0.1522707477521903,0.8366489061016318,0.9307880671183358,0.6243364764003283,1.0,COBOT,2,59.0,2.0,18.0,2.0,4.0,3.0,48,12,16,14,11,26.0,1,1.0
01-05-18_10-11-38_cobot.txt,1,0.5480891729084755,0.4041183382796893,0.3004117551846695,9012.0522437849,261.1862268042344,382.2,15438,1.1543423850575405,0.0836021469207055,0.4089394117061746,0.501382549280229,0.3907217781011746,0.1428885429383381,0.7487058670976257,0.8739303645910018,0.6285167800238222,1.0,COBOT,2,59.0,2.0,18.0,2.0,4.0,3.0,48,12,16,14,11,26.0,1,1.0
01-05-18_10-11-38_cobot.txt,1,0.5412799676088459,0.414052429196415,0.2929937697936263,8789.520100038997,265.78819689634025,379.9,15466,1.1395947401887545,0.0814283617819798,0.3921113551538741,0.5289315644912551,0.4015098425164488,0.1363272267104461,0.6725113980028652,0.885495823018921,0.6513491113124248,1.0,COBOT,2,59.0,2.0,18.0,2.0,4.0,3.0,48,12,16,14,11,26.0,1,1.0
01-05-18_10-11-38_cobot.txt,1,0.6011499820635707,0.4593480329801033,0.361393347379944,10841.43902805094,260.5332252616887,379.3,15266,1.1783586201830538,0.0986895696318602,0.5168556797557852,0.5736244589447083,0.4297443203860288,0.1658951899489072,0.8930813997263608,0.9568870711539328,0.6866378295196502,1.0,COBOT,2,59.0,2.0,18.0,2.0,4.0,3.0,48,12,16,14,11,26.0,1,1.0
01-05-18_10-11-38_cobot.txt,1,0.6128740777648929,0.4638603805033855,0.3756271561013714,11268.43905588504,255.087670803796,383.4333333333333,14689,1.189542880152116,0.1017842465104815,0.5288377180923899,0.594584431976105,0.4244674842247868,0.1697574150546918,0.9020163983820728,0.9904584800877264,0.6873878530523118,1.0,COBOT,2,59.0,2.0,18.0,2.0,4.0,3.0,48,12,16,14,11,26.0,1,1.0
01-05-18_10-11-38_cobot.txt,1,0.6427410205588026,0.4852561576010752,0.4131297905019878,12393.480585269132,261.17966827349005,381.23333333333335,15155,1.1742020727065077,0.0998838818020953,0.5348950418560057,0.6132617736291084,0.4563206393334096,0.1680868652939461,0.9085679536670273,1.0429480486777956,0.7388409633162453,1.0,COBOT,2,59.0,2.0,18.0,2.0,4.0,3.0,48,12,16,14,11,26.0,1,1.0
01-05-18_12-50-02_cobot.txt,1,0.261887526215796,0.1892213171398543,0.0685873626328503,2057.552291622878,237.67525760994803,396.73333333333335,12490,1.3756626741530638,0.0454260175289462,0.2445515041015294,0.2662798698725779,0.1443679967745304,0.0767930184733684,0.4224795679105687,0.4608279582100107,0.2421943113234802,1.0,COBOT,15,61.0,4.0,19.0,3.0,5.0,6.0,63,12,16,14,11,26.0,1,1.0
01-05-18_12-50-02_cobot.txt,1,0.3245208329867875,0.2066590002233699,0.1053172816184924,3159.4131312731533,225.20520808337352,405.5333333333333,12674,1.4684581251550684,0.0555802329935722,0.2981926608712909,0.2830768692617597,0.146706736078627,0.1044653183744251,0.5814394261835064,0.534046426389995,0.2564580407914887,1.0,COBOT,15,61.0,4.0,19.0,3.0,5.0,6.0,63,12,16,14,11,26.0,1,1.0
01-05-18_12-50-02_cobot.txt,1,0.5134053014723194,0.358452914244631,0.2635937900395512,7907.550107396496,211.82444696033195,416.06666666666666,10398,1.5252237513196674,0.1035608670451241,0.5933010404367265,0.5019796441289275,0.2092083755087774,0.1739020616845363,1.0489271011065142,0.8687768619188306,0.363156102249267,1.0,COBOT,15,61.0,4.0,19.0,3.0,5.0,6.0,63,12,16,14,11,26.0,1,1.0
01-05-18_12-50-02_cobot.txt,1,0.4805410306599351,0.3404277694504213,0.2309273797270369,6927.590464431381,212.72518917185135,417.1666666666667,10332,1.504553860627274,0.0945618281145024,0.5730977110330148,0.4755667308019011,0.1926646694282308,0.1577899879553517,0.9997381992133264,0.8147988862938543,0.3332558454323259,1.0,COBOT,15,61.0,4.0,19.0,3.0,5.0,6.0,63,12,16,14,11,26.0,1,1.0
01-05-18_12-50-02_cobot.txt,1,0.4615644502877133,0.3227002126191205,0.2130488433975122,6391.25225308197,214.8673072473285,414.5,10909,1.501135532308184,0.0901897061136011,0.5195711713034032,0.4517767818026991,0.194595906366664,0.1513286247197923,0.9258345451191744,0.7920351992215451,0.3364895770290801,1.0,COBOT,15,61.0,4.0,19.0,3.0,5.0,6.0,63,12,16,14,11,26.0,1,1.0
01-05-18_12-50-02_cobot.txt,1,0.4618307542476024,0.3228914391051481,0.2132947553940891,6398.629367067279,216.56929535643891,413.06666666666666,10975,1.462958685068808,0.0915126829809043,0.5143243886904385,0.4521294714602711,0.2016165441456349,0.1550808507768469,0.9098374950873378,0.7888797212569696,0.3458788239273881,1.0,COBOT,15,61.0,4.0,19.0,3.0,5.0,6.0,63,12,16,14,11,26.0,1,1.0
01-05-18_12-50-02_cobot.txt,1,0.6150102450462932,0.4414589539217853,0.37825020985223,11347.128045357049,210.42496680909997,417.8666666666667,10450,1.5041324373582212,0.1269262263547233,0.7382337792271728,0.6216889259617642,0.2522056747587277,0.2142132171571429,1.2725923917129347,1.0576240694229455,0.4298587219785624,1.0,COBOT,15,61.0,4.0,19.0,3.0,5.0,6.0,63,12,16,14,11,26.0,1,1.0
01-05-18_12-50-02_cobot.txt,1,0.3766281449563823,0.2429941722078306,0.1418534880228864,4255.462787198571,226.2445769125752,402.7,13216,1.3821403408640809,0.0591511481745168,0.3103005143737269,0.3328105174197601,0.1869191418907398,0.1175377932718099,0.6409501895254192,0.6232493746039456,0.3177659049226896,1.0,COBOT,15,61.0,4.0,19.0,3.0,5.0,6.0,63,12,16,14,11,26.0,1,1.0
01-05-18_11-15-36_cobot.txt,1,0.5263875063677294,0.3757374181681945,0.2770930432948128,8312.51420580109,219.765145252982,408.2,11295,1.4287044494420025,0.1135477115027603,0.5945914414368647,0.5182547686131956,0.2470317668101173,0.1881987839598915,1.0305278064802217,0.8921135945437515,0.4182531578586816,1.0,COBOT,7,63.0,2.0,19.0,3.0,4.0,5.0,56,12,16,14,11,26.0,1,1.0
01-05-18_11-15-36_cobot.txt,1,0.4684669911712505,0.3321123456917971,0.2194686374382925,6583.839654511336,230.0923303462754,401.2,12738,1.4184968857265752,0.093272261460228,0.5216367579141784,0.4323223808870459,0.2403594576201411,0.1597739998300034,0.9041958527073906,0.7640223033828328,0.397102579966141,1.0,COBOT,7,63.0,2.0,19.0,3.0,4.0,5.0,56,12,16,14,11,26.0,1,1.0
01-05-18_11-15-36_cobot.txt,1,0.3484373560759121,0.2635927939900429,0.1214126381971118,3642.257733275159,260.5939184452216,381.8666666666667,15105,1.2532596084074257,0.0612508463622236,0.3122197443658651,0.3328693553463192,0.2391586703782864,0.10496648001688,0.539687413249738,0.5581879359156142,0.3852883518476838,1.0,COBOT,7,63.0,2.0,19.0,3.0,4.0,5.0,56,12,16,14,11,26.0,1,1.0
01-05-18_11-15-36_cobot.txt,1,0.3478548577882183,0.2618866720916729,0.1210070356547167,3630.090062605848,258.63346095092373,383.76666666666665,15032,1.2776012857010637,0.0591917823567962,0.3115802098080101,0.3353902220781692,0.2350701578644434,0.0996111012114969,0.5315636615865469,0.5663111208738522,0.3800567819968295,1.0,COBOT,7,63.0,2.0,19.0,3.0,4.0,5.0,56,12,16,14,11,26.0,1,1.0
01-05-18_11-15-36_cobot.txt,1,0.3016259795778013,0.2263485761525137,0.090981264265077,2729.346946688046,262.7286879670414,379.2,16086,1.1890796561516812,0.0506312785273855,0.2643282445138959,0.2706795321690173,0.2157070691953156,0.0860592169236945,0.460304784623348,0.4667659628064468,0.3438959049675086,1.0,COBOT,7,63.0,2.0,19.0,3.0,4.0,5.0,56,12,16,14,11,26.0,1,1.0
01-05-18_11-15-36_cobot.txt,1,0.6460507660099281,0.4408977554197057,0.4173955054455296,12521.447767860443,217.35773762293925,414.7,11323,1.5276902272930897,0.1146706212779911,0.7287165158382194,0.6033496964037643,0.2737567282896995,0.2003886067087426,1.280099742321784,1.0816584707774362,0.4706194715070774,1.0,COBOT,7,63.0,2.0,19.0,3.0,4.0,5.0,56,12,16,14,11,26.0,1,1.0
01-05-18_11-15-36_cobot.txt,1,0.5120816044579242,0.3609855922603712,0.262236310834563,7866.827088726055,226.1299493118824,405.06666666666666,12427,1.3825210239438694,0.0909842015960919,0.5324439060832536,0.4868892216377551,0.2533959193827668,0.1548700152059828,0.9619619227706498,0.8539965561556758,0.4233815722015663,1.0,COBOT,7,63.0,2.0,19.0,3.0,4.0,5.0,56,12,16,14,11,26.0,1,1.0
01-05-18_11-06-17_cobot.txt,1,0.4656351629225401,0.3296682349792113,0.2168233323943136,6504.483148497014,207.9648323746231,420.06666666666666,9978,1.5456231953823534,0.0965494097042612,0.5592558716511656,0.461183279681112,0.1838303564293846,0.1624804715048032,0.948902147675294,0.7986643049410724,0.3197085256988475,1.0,COBOT,6,67.0,4.0,23.0,3.0,3.0,5.0,53,12,16,14,11,26.0,1,1.0
01-05-18_11-06-17_cobot.txt,1,0.5237484431642058,0.3733672777533959,0.2743215757694549,8229.372951507878,209.59138504328203,417.9333333333333,10388,1.5188748796092175,0.1103307261637926,0.6314391455102603,0.5121933870093229,0.2155571239524185,0.18838192084481,1.0809207618712606,0.8861212798615172,0.3679755184013273,1.0,COBOT,6,67.0,4.0,23.0,3.0,3.0,5.0,53,12,16,14,11,26.0,1,1.0
01-05-18_11-06-17_cobot.txt,1,0.3925641042785487,0.2775665261112723,0.1541117130251201,4623.197279040578,223.5960988001204,406.23333333333335,11939,1.445652338022853,0.0773961240796981,0.4256174994095194,0.3775644847982481,0.1931179114514623,0.1295383562425081,0.7338504461509808,0.6568370572934357,0.3237292375153499,1.0,COBOT,6,67.0,4.0,23.0,3.0,3.0,5.0,53,12,16,14,11,26.0,1,1.0
01-05-18_11-06-17_cobot.txt,1,0.3374705609504548,0.2466992480985232,0.1138901758474095,3416.591385246439,227.8806639860825,402.6333333333333,12168,1.39081789024835,0.0665339524547787,0.3807131873212772,0.3280614592704942,0.1727776749202226,0.113352153825362,0.6660427615487338,0.5629558449938938,0.2851384151090344,1.0,COBOT,6,67.0,4.0,23.0,3.0,3.0,5.0,53,12,16,14,11,26.0,1,1.0
01-05-18_11-06-17_cobot.txt,1,0.3779393041885776,0.2687826830050071,0.1428428790798488,4285.1435295163865,223.66394335392604,406.4,11926,1.4313526572622637,0.074280344339917,0.4275294421407097,0.3603662628354145,0.1840366522448671,0.1259602399654447,0.7355332442472593,0.6274085868611574,0.3069087503542153,1.0,COBOT,6,67.0,4.0,23.0,3.0,3.0,5.0,53,12,16,14,11,26.0,1,1.0
01-05-18_11-06-17_cobot.txt,1,0.3641532755907003,0.2614771803847236,0.1326120285243873,3978.228243703096,228.84736601655368,402.56666666666666,12272,1.412420754325941,0.0691059214727155,0.4080959055838933,0.3484513824590317,0.1831703718663428,0.1156556243209536,0.7005687753684484,0.6021115511905724,0.3043484585151038,1.0,COBOT,6,67.0,4.0,23.0,3.0,3.0,5.0,53,12,16,14,11,26.0,1,1.0
01-05-18_11-06-17_cobot.txt,1,0.4562794909990494,0.3198350750609391,0.2081979138368128,6245.729217190548,216.7240327503523,413.4666666666666,11293,1.4864620965959907,0.087884949965367,0.5294001828567737,0.4307647245882538,0.200985358195317,0.1539184594029091,0.9320286671690752,0.7544880900329046,0.3386746443897125,1.0,COBOT,6,67.0,4.0,23.0,3.0,3.0,5.0,53,12,16,14,11,26.0,1,1.0
01-05-18_12-44-37_cobot.txt,1,0.2065003302349314,0.1519153139623891,0.0426438078473973,1279.2715916140717,253.74968223257287,385.6,13905,1.2755762250763267,0.0345605157261271,0.1743027990865897,0.2051519482112803,0.1307106516573026,0.0589886805319982,0.290904611941657,0.3535792774154568,0.2182811792090155,1.0,COBOT,14,61.0,4.0,19.0,3.0,5.0,6.0,63,12,16,14,11,26.0,1,1.0
01-05-18_12-44-37_cobot.txt,1,0.1978804503463475,0.156837302700006,0.0391579778952031,1174.7001788781986,255.15920827071812,384.1,13577,1.2796741974760772,0.0362588816173752,0.1721520675983643,0.2130241378612895,0.1335825097803535,0.0588080435797629,0.2762758290136585,0.3421792977782483,0.2166235636761686,1.0,COBOT,14,61.0,4.0,19.0,3.0,5.0,6.0,63,12,16,14,11,26.0,1,1.0
01-05-18_12-44-37_cobot.txt,1,0.4923761557281901,0.2652315369541803,0.2424423601416756,7273.028361890127,216.59901089592944,413.26666666666665,12929,1.480508332766574,0.0669621346370318,0.3577467022017025,0.3604813338852048,0.193524858404674,0.1354559373237861,0.9033322895875814,0.7434202281373337,0.3664671082308219,1.0,COBOT,14,61.0,4.0,19.0,3.0,5.0,6.0,63,12,16,14,11,26.0,1,1.0
01-05-18_12-44-37_cobot.txt,1,0.6516787638987851,0.4365719257075936,0.4246993679622472,12740.556339499451,216.249590562646,410.76666666666665,11750,1.4162796525103398,0.1151386142426128,0.6792338857714871,0.5967119026051261,0.2945063627478048,0.1988755691621028,1.1896674337054547,1.0984985487454546,0.5090358790375992,1.0,COBOT,14,61.0,4.0,19.0,3.0,5.0,6.0,63,12,16,14,11,26.0,1,1.0
01-05-18_12-44-37_cobot.txt,1,0.6426387645739741,0.4341255147654063,0.4129983483447752,12389.537451994913,215.16994924620195,411.8333333333333,11191,1.449465243253242,0.1201966061751703,0.6987394747042845,0.5975808558541023,0.276884625880798,0.2209650930249371,1.3055080136695665,1.0499824054849878,0.4728286722086568,1.0,COBOT,14,61.0,4.0,19.0,3.0,5.0,6.0,63,12,16,14,11,26.0,1,1.0
01-05-18_12-44-37_cobot.txt,1,0.4665581983827589,0.3396243469367871,0.2176838086051193,6530.296574344976,230.0920879788394,400.3666666666667,12497,1.3474842487726113,0.082188114801806,0.4636301065226498,0.4658878312010006,0.2521155653785646,0.1413076831047159,0.8302179722490888,0.7950247389046903,0.4133829974546081,1.0,COBOT,14,61.0,4.0,19.0,3.0,5.0,6.0,63,12,16,14,11,26.0,1,1.0
01-05-18_12-44-37_cobot.txt,1,0.3728610635407344,0.2810670499360957,0.1390300070382955,4170.761181141828,251.35803608919,385.3666666666667,14431,1.2104500816387025,0.0621983533325249,0.3302837983923229,0.3615864011463662,0.2494988861075906,0.1005686535476672,0.5705759146519125,0.6175073360467467,0.402155637903657,1.0,COBOT,14,61.0,4.0,19.0,3.0,5.0,6.0,63,12,16,14,11,26.0,1,1.0
01-05-18_10-33-16_cobot.txt,1,0.2654735268403154,0.2045933984578443,0.0704785427377936,2114.2858035910704,278.0640126896009,373.06666666666666,17622,1.0311650351984072,0.0384555291461478,0.1866280420947273,0.2229543922286335,0.2187314357840011,0.0670201446547409,0.3421766683091592,0.3808381220463168,0.3452511826553035,1.0,COBOT,4,60.0,2.0,17.0,2.0,4.0,4.0,53,12,16,14,11,26.0,1,1.0
01-05-18_10-33-16_cobot.txt,1,0.5472477967541922,0.3914854233488055,0.2994901340567861,8984.404531569528,237.9742821440716,396.6,13420,1.387402396304891,0.098359674944473,0.5794376011446487,0.512570887651762,0.2979716468942426,0.1673362300165841,1.0139470125616232,0.8912062590665365,0.4913244739827067,1.0,COBOT,4,60.0,2.0,17.0,2.0,4.0,4.0,53,12,16,14,11,26.0,1,1.0
01-05-18_10-33-16_cobot.txt,1,0.6311317398976299,0.4188622239453505,0.3983405511245804,11949.818193186287,228.69493512057932,404.5333333333333,13687,1.47239812584167,0.1107578787885472,0.6485826827515577,0.5490647608228867,0.2991063366837371,0.1964666941444828,1.2024740247055985,1.0256575101182648,0.502672502185552,1.0,COBOT,4,60.0,2.0,17.0,2.0,4.0,4.0,53,12,16,14,11,26.0,1,1.0
01-05-18_10-33-16_cobot.txt,1,0.5624476287937389,0.3988659137739394,0.3163578803983794,9490.420054070984,238.4256156269072,396.6333333333333,13692,1.3892287157826355,0.1025021627884608,0.5732116055605138,0.5219303377716756,0.3077445434666878,0.1745875146913405,1.0379624493188522,0.91810880537689,0.5048309411455297,1.0,COBOT,4,60.0,2.0,17.0,2.0,4.0,4.0,53,12,16,14,11,26.0,1,1.0
01-05-18_10-33-16_cobot.txt,1,0.534698349128842,0.3733997986779188,0.2859118549562741,8577.069736833268,240.58920178392447,396.1666666666667,14267,1.4256846480909802,0.0939398871780014,0.5558627452329851,0.4708320946873135,0.2962970480446713,0.1630960413278746,1.0000968037945568,0.8455701110783528,0.4857729669057971,1.0,COBOT,4,60.0,2.0,17.0,2.0,4.0,4.0,53,12,16,14,11,26.0,1,1.0
01-05-18_10-33-16_cobot.txt,1,0.3659148869902939,0.2608760972582752,0.1338981677933793,4016.811135633586,259.4276188896048,382.5,16464,1.22977100922351,0.0560255559729523,0.3043333824457296,0.3056829222633046,0.2478950025001943,0.1007808103319087,0.5800357763006515,0.5504014323611217,0.4009535536719535,1.0,COBOT,4,60.0,2.0,17.0,2.0,4.0,4.0,53,12,16,14,11,26.0,1,1.0
01-05-18_10-33-16_cobot.txt,1,0.3954715218326797,0.2897941657983008,0.1564029380119227,4691.931737419671,252.69114057974636,386.0333333333333,14635,1.2908768065420575,0.0660159961366661,0.3644849558207397,0.3716175033266116,0.2506477617814684,0.1136591479818539,0.6456353648325902,0.6477440101394598,0.411830447423917,1.0,COBOT,4,60.0,2.0,17.0,2.0,4.0,4.0,53,12,16,14,11,26.0,1,1.0
01-05-18_12-29-37_cobot.txt,1,0.34169061731691,0.2669595317476739,0.1167563698414057,3502.5743388723304,245.9139349747784,388.3333333333333,12856,1.3420195152559886,0.0629152971934733,0.3286543766171853,0.3671505513184054,0.2144681682057459,0.101676444953737,0.5408380554445256,0.6008915357969312,0.3465993907131072,1.0,COBOT,13,61.0,4.0,19.0,3.0,5.0,6.0,63,12,16,14,11,26.0,1,1.0
01-05-18_12-29-37_cobot.txt,1,0.3476035918619898,0.2679483842609426,0.120832284818184,3624.847712260704,250.26189703279928,386.6333333333333,13327,1.2812466465795065,0.0660882400448638,0.3212196897536843,0.3641698874343818,0.2236912567421191,0.1093923024189925,0.5197702651580641,0.6005517554541969,0.3659779653607252,1.0,COBOT,13,61.0,4.0,19.0,3.0,5.0,6.0,63,12,16,14,11,26.0,1,1.0
01-05-18_12-29-37_cobot.txt,1,0.3232305216365231,0.2535723084483464,0.1044814528325132,3134.3391035225645,252.19495196671767,385.3333333333333,13242,1.281666337312757,0.0607320087160562,0.3053874680987355,0.3424927572874758,0.210794222848259,0.0993489837413817,0.4915796084922182,0.5604207906271544,0.3412886038763869,1.0,COBOT,13,61.0,4.0,19.0,3.0,5.0,6.0,63,12,16,14,11,26.0,1,1.0
01-05-18_12-29-37_cobot.txt,1,0.368750249537127,0.281903660721189,0.1359812792430015,4079.302396010804,249.57882117460375,387.9333333333333,13330,1.3000274623092585,0.066967951690137,0.3275718666758477,0.3866260420194116,0.2347303856071064,0.1108671827531909,0.5622867602280569,0.6406735017773486,0.3804481604425274,1.0,COBOT,13,61.0,4.0,19.0,3.0,5.0,6.0,63,12,16,14,11,26.0,1,1.0
01-05-18_12-29-37_cobot.txt,1,0.8007479930978127,0.549585736385672,0.6412187224075883,19235.92045350524,219.4932673201137,409.6,11371,1.4229244000805512,0.152200542942323,0.8588574561062772,0.7624946434946663,0.3564411116371477,0.2609502711990047,1.5430141911832609,1.344239171066104,0.6191116205277788,1.0,COBOT,13,61.0,4.0,19.0,3.0,5.0,6.0,63,12,16,14,11,26.0,1,1.0
01-05-18_12-29-37_cobot.txt,1,0.510169174611189,0.3829290687702282,0.2602812627655541,7808.177601703858,240.0039682522661,393.9333333333333,12837,1.3155280148247075,0.0912171417769448,0.4548607355156854,0.5327010928670008,0.3059602835569936,0.150794018083863,0.8131708842863,0.8806722326033449,0.5042154967936134,1.0,COBOT,13,61.0,4.0,19.0,3.0,5.0,6.0,63,12,16,14,11,26.0,1,1.0
01-05-18_12-29-37_cobot.txt,1,0.5514490341810426,0.4164096950636156,0.3041061741716771,9122.881118976142,236.6047451812555,396.76666666666665,12555,1.3257380823152587,0.101491249869655,0.518315980004013,0.5849107207757467,0.3196795418489586,0.1705508938483579,0.8689676378251151,0.9718541799186378,0.5272050757473398,1.0,COBOT,13,61.0,4.0,19.0,3.0,5.0,6.0,63,12,16,14,11,26.0,1,1.0
01-05-18_12-21-44_cobot.txt,1,0.9119955638958348,0.2317377164082619,0.8317636340201493,24952.077256970457,198.5246403398612,427.6666666666667,11333,1.634638185717457,0.066603837954899,0.3817733682724652,0.3173415428774211,0.1319692359234869,0.2582441660651794,1.6744551950089657,1.2912724017998694,0.4834075623894527,1.0,COBOT,12,61.0,4.0,19.0,3.0,5.0,6.0,63,12,16,14,11,26.0,1,1.0
01-05-18_12-21-44_cobot.txt,1,0.198370430062225,0.137478683757039,0.0393521392610474,1180.5248256921632,230.59666643116117,402.2,12004,1.4666965231870075,0.0384338965823748,0.2061960875392434,0.1865294303588835,0.0976985434925444,0.0657102732860413,0.3703352909515048,0.3287184412696924,0.1662796268477888,1.0,COBOT,12,61.0,4.0,19.0,3.0,5.0,6.0,63,12,16,14,11,26.0,1,1.0
01-05-18_12-21-44_cobot.txt,1,0.1996353817798353,0.1454230917843003,0.0398556141788532,1195.6285697514186,229.90723310272472,401.1333333333333,11827,1.4026000831881191,0.0391180884104378,0.2081539632516273,0.2026090190885685,0.1030313373128346,0.066171147712832,0.3513048639637725,0.3478352045803199,0.1723967199649831,1.0,COBOT,12,61.0,4.0,19.0,3.0,5.0,6.0,63,12,16,14,11,26.0,1,1.0
01-05-18_12-21-44_cobot.txt,1,0.1870267205410591,0.1419220197981897,0.0349801602016835,1049.3698258903034,239.2818600942429,393.8,12589,1.2903239026823554,0.035419924633017,0.1793443568842822,0.1975133003877849,0.1111401045406549,0.0579393081917601,0.3014197238878663,0.3266798182242431,0.1828917917645996,1.0,COBOT,12,61.0,4.0,19.0,3.0,5.0,6.0,63,12,16,14,11,26.0,1,1.0
01-05-18_12-21-44_cobot.txt,1,0.1984334403385003,0.1503264227405473,0.0393771428160003,1181.2749073371951,237.3417985944681,394.3666666666667,12895,1.265647436840636,0.0378909197071714,0.19737440884315,0.2029482728146565,0.1196050748966901,0.0634106446864434,0.3353929322020428,0.3390035021005416,0.192734919147597,1.0,COBOT,12,61.0,4.0,19.0,3.0,5.0,6.0,63,12,16,14,11,26.0,1,1.0
01-05-18_12-21-44_cobot.txt,1,0.1926680855424305,0.1426755424029289,0.0371222285942051,1113.62973559756,243.5166871796097,391.4666666666666,13731,1.2514442631172713,0.0337568498785607,0.1664265974133915,0.1924684840742777,0.120489701193047,0.0565983684977435,0.299187153149077,0.3282257813559858,0.1963020813307244,1.0,COBOT,12,61.0,4.0,19.0,3.0,5.0,6.0,63,12,16,14,11,26.0,1,1.0
01-05-18_12-21-44_cobot.txt,1,0.208702576949788,0.1588233253586407,0.0435582175660677,1306.7029687644658,236.7024256397674,395.73333333333335,12642,1.3020360479376818,0.0390844807981404,0.2180613844215036,0.2145980237637899,0.1230300640681976,0.0650147328169534,0.3700221503760377,0.3570507464999952,0.1989566112416224,1.0,COBOT,12,61.0,4.0,19.0,3.0,5.0,6.0,63,12,16,14,11,26.0,1,1.0
