filename,patient,rmse,mav,var,energy,mnf,mdf,zc,fr,mav_arr_0,mav_arr_1,mav_arr_2,mav_arr_3,std_0,std_1,std_2,std_3
02-05-24_08-56-08_stroopeasy.txt,2,0.601780080255081,0.3615534057834762,0.3621513367030352,10864.177949754352,217.8677210016448,415.4333333333333,12887,1.566198807594696,0.086696282168824,0.4895863466636684,0.5013222856068463,0.257608848646935,0.1801610407331565,1.073278082189142,0.9960327092845176,0.4447254769540616
02-05-24_08-56-08_stroopeasy.txt,2,0.3016157452084296,0.2386540595905485,0.090975090260645,2729.1617327290896,261.4450265804129,383.4,13911,1.2201661732392242,0.0461108058442557,0.2634466337771695,0.31884749260537,0.2131492899630589,0.0728764875304767,0.4133270721718886,0.5135900419244116,0.3422970494829365
02-05-24_08-56-08_stroopeasy.txt,2,0.3097420423866681,0.2460599877701588,0.0959433309328955,2878.203984655934,260.4840549498413,383.23333333333335,13889,1.221457986123238,0.0479080837944322,0.267820288515072,0.3280169212067703,0.2194412013791854,0.0772199628089184,0.427398467553183,0.5310204884004526,0.3522910430159912
02-05-24_08-56-08_stroopeasy.txt,2,0.3507561858690916,0.2824986614375541,0.123034003058868,3690.8970577629834,259.2658169680845,386.56666666666666,13612,1.260489438144245,0.0559884753968449,0.2792901586619693,0.3885376668889369,0.248069321325067,0.0894888077462802,0.4576583581293361,0.6185469551587632,0.3985986653328661
02-05-24_08-56-08_stroopeasy.txt,2,0.3767419304935666,0.3092085615428176,0.141939213499136,4258.03446576058,287.1295755953045,376.23333333333335,16875,1.0133660621474645,0.0485538521363425,0.2223985266216754,0.3531263206874764,0.3338480592089372,0.079185321788767,0.3615522828180758,0.5714969746914548,0.5236440453845631
02-05-24_08-56-08_stroopeasy.txt,2,0.3760430648532494,0.3080587383525113,0.1414131003942382,4242.251598726753,311.19255608643465,377.7,20048,0.8797333516575108,0.0415194369477278,0.2116601040894883,0.2808082955944391,0.3766117556374705,0.0680218141611891,0.343421121629411,0.4533981674334248,0.5864887319910544
02-05-24_08-56-08_stroopeasy.txt,2,0.4775817963561143,0.3411761145165239,0.2280919752765756,6842.531166321992,275.92372604558204,381.7,19694,1.0596571961560488,0.0527351192756267,0.281359059327695,0.325392852111806,0.3808677026346839,0.1133020605660264,0.6706727061634628,0.628700066488174,0.6043005883463355
03-06-15_13-55-48_stroopeasy.txt,3,0.3006729600742477,0.227434306507526,0.0904072424945599,2712.1268675943047,194.73086952665483,427.5333333333333,9497,1.580050385649436,0.0776503151639938,0.418238100831152,0.3001968676107406,0.1132040147274248,0.129672367301387,0.7028677412725811,0.4974521099298344,0.1855201594252188
03-06-15_13-55-48_stroopeasy.txt,3,0.299250818999288,0.2202894294609513,0.0895540378063381,2686.5315801523384,191.8125023859983,429.9666666666666,9416,1.5994227700751749,0.075837180139145,0.4081914709440815,0.2924075902148861,0.1054074844364929,0.1299071217150338,0.6986710826188411,0.4899645663149891,0.17434525790231
03-06-15_13-55-48_stroopeasy.txt,3,0.3354930421199045,0.2511155112273252,0.1125593332886442,3376.66743932604,184.0316125604662,438.8,8508,1.6834220591207312,0.0826496056399246,0.5042253497719488,0.3209163849525291,0.1015463754514485,0.1371084945744457,0.8425508879836924,0.538182283138247,0.1688210980758855
03-06-15_13-55-48_stroopeasy.txt,3,0.3169907684408277,0.2369673549494493,0.1004864968266006,3014.494418301193,185.13728534469828,439.2,8453,1.6824480629341685,0.0825752225787939,0.4676911665918825,0.310292598505944,0.0954705849946664,0.1375312909902918,0.7741916730248739,0.5129183238258811,0.1580484722064887
03-06-15_13-55-48_stroopeasy.txt,3,0.3122863817430296,0.2377174545557102,0.0975260350899895,2925.683526664596,185.98237403864735,437.9666666666666,8501,1.6860068350785211,0.0792201594249531,0.4747494418652455,0.3068706565728102,0.0974378092782092,0.1288911700552034,0.7688083552285878,0.5018221031682969,0.1610259963465592
03-06-15_13-55-48_stroopeasy.txt,3,0.3136102067553772,0.240775722749696,0.0983546402691594,2950.5408534345133,189.71316118253725,434.1666666666667,8871,1.6421283058318048,0.0781046725333671,0.4616405976539658,0.3174663344413984,0.1069365544501649,0.1265521267949506,0.7577209685851376,0.5216460411049697,0.1743456385734733
03-06-15_13-55-48_stroopeasy.txt,3,0.3325565189633925,0.2508465892131619,0.1105975248892122,3317.8151491514777,191.55137338439025,430.8,9206,1.6061014962824296,0.0831805289485965,0.4788973586063196,0.3267195116424583,0.1178582106575828,0.139124778724163,0.786111045374977,0.5438102844925564,0.1934229558147204
03-06-15_15-31-36_stroopeasy.txt,3,0.4158302758677924,0.2976421726839325,0.1729205823476959,5187.444549848531,180.77132736403087,443.5333333333333,8535,1.7528212009964237,0.0893448617790538,0.5842826716245184,0.3931393683970423,0.1165418673812245,0.1498745441345024,1.012314294383544,0.6697151939763422,0.1968345754650426
03-06-15_15-31-36_stroopeasy.txt,3,0.348594264548147,0.2660724823982823,0.1215220120095971,3645.5388382759056,184.63471487578784,439.6333333333333,8463,1.6722721355160264,0.0811391039074217,0.528929238455735,0.3424484174225157,0.1079575701590158,0.1316119118615881,0.8770085169868173,0.5627402369876663,0.1783352121529352
03-06-15_15-31-36_stroopeasy.txt,3,0.3434024336339842,0.2631494639688047,0.1179291623978228,3537.7569427722874,186.13358349125596,439.5333333333333,8513,1.6540337461174783,0.0733325133570163,0.5058485664460597,0.3529224912600477,0.1092775086635153,0.1196585393732185,0.8298112774783947,0.5783276105564501,0.1792194120803347
03-06-15_15-31-36_stroopeasy.txt,3,0.3491856429320931,0.2663300365166031,0.1219346777191565,3657.918396896976,190.87240506449544,433.56666666666666,9076,1.5712593280116254,0.0782759859170937,0.5163213602613128,0.3476680785918978,0.1225003464822456,0.1297181616028501,0.8498338463546663,0.5686548814683707,0.1988217436049223
03-06-15_15-31-36_stroopeasy.txt,3,0.3382494389342489,0.2593050781286095,0.1144164968225616,3432.380488180025,206.6128465077064,423.23333333333335,9840,1.5321217355366477,0.0756887322751563,0.497979254909766,0.3262293875847293,0.1390068334344346,0.1241284755573811,0.8248817855544481,0.5352751033299049,0.2222228866264756
03-06-15_15-31-36_stroopeasy.txt,3,0.3370543562747556,0.2610532191605468,0.1136094260646587,3408.169172513696,211.20506524872548,421.8,9824,1.56480349531277,0.0738194422985771,0.4993530957645956,0.3263923401820703,0.1426573543490471,0.1196143140590353,0.8068284139857971,0.5347556683529868,0.2270471628946856
03-06-15_15-31-36_stroopeasy.txt,3,0.4550375370342223,0.3263291603791111,0.2070660623122483,6211.7748033051375,198.753357634196,433.4,10578,1.732106182303032,0.093823123696848,0.6220908402970851,0.4198724736045402,0.1596690446578377,0.1612752423673621,1.080675062573895,0.73195461528985,0.2586467096977892
04-05-23_16-40-45_stroopeasy.txt,4,1.5737548794577898,0.6789852000595434,2.476786980183208,74301.13261851606,256.26254531061,391.9,14519,1.1966406788870638,0.1431594756359474,0.682994898390699,0.9750014132813862,0.6006388462073176,0.3142021634751872,1.597343180318203,2.429080420298812,1.5193863576861224
04-05-23_16-40-45_stroopeasy.txt,4,2.068514085958633,1.0419064340639208,4.278893153581068,128362.51571427844,260.1206349371424,389.4666666666666,13037,1.1858055420326534,0.2644651523003674,1.1175317974444758,1.549330135079103,0.9186849941543708,0.4855997308656667,2.145312691512334,3.217191591061189,2.1299125066189566
04-05-23_16-40-45_stroopeasy.txt,4,0.7061966575890972,0.2847994262694408,0.4987303435347971,14961.411575700378,251.75168342173995,395.4666666666666,16485,1.281625252512625,0.0585976212159646,0.2734126738893576,0.3855978191087079,0.2603210556724139,0.1491179273324572,0.7277093993904522,1.0994436202491895,0.6462301492377645
04-05-23_16-40-45_stroopeasy.txt,4,0.1881287091469454,0.1507477642275322,0.0353935909916623,1061.7723361588796,299.5899962426984,375.1333333333333,18050,1.001137319164659,0.022309428450063,0.1013909528282435,0.1600106761011395,0.1711452161853501,0.0370301223670132,0.1658887304294562,0.2633624524947739,0.2720512351845178
04-05-23_16-40-45_stroopeasy.txt,4,0.2882687882333767,0.1738167892086153,0.0831016643250169,2492.966828086182,275.17745432716964,380.8333333333333,16889,1.1117342677584467,0.0293577170395801,0.1226135749219162,0.204894890445583,0.1873503830110468,0.0629128466305519,0.2628656585520058,0.4296480568336502,0.3430421363458854
04-05-23_16-40-45_stroopeasy.txt,4,0.3167172690451695,0.1816669372803566,0.1003131722838397,3009.2948553429087,261.6531310856881,387.1,17113,1.2496159535478475,0.0307912475712953,0.1360626510198421,0.2127490571979095,0.192252061671685,0.0633486420836206,0.3394051790562767,0.4744616504957212,0.3479236954101456
04-05-23_16-40-45_stroopeasy.txt,4,0.2680795797896146,0.1645991751264456,0.0718690567354008,2155.99983300529,274.4631990692504,380.8333333333333,17520,1.1297767561876768,0.0262316077342853,0.1116782201491759,0.1852815909719542,0.1809423351617729,0.0545875289346601,0.2399690177076238,0.4201480956505079,0.3044081891934225
04-05-23_16-40-45_stroopeasy.txt,4,0.21303435106075,0.15685798181132,0.0453851475701272,1361.5090419562462,294.0219559842351,374.6666666666667,17857,1.0156500657455156,0.0245507889434381,0.1104939803097215,0.1674435815539672,0.1765405105561387,0.0452644840635628,0.1958846363687076,0.2978095181784692,0.2931495767629599
04-05-23_16-40-45_stroopeasy.txt,4,0.4185874105441025,0.2345127102200601,0.1752212609747162,5256.462607980511,265.0121776025544,385.2,17158,1.2195826202402968,0.0423632427721916,0.2239996991679498,0.2863669795508493,0.2313985214023453,0.0858227076275908,0.4645830268224006,0.6373094013514954,0.4469164323575944
04-06-09_16-01-13_stroopeasy.txt,4,0.4413267496811789,0.26662377074849,0.1947757925105709,5843.078999524618,204.8961757172829,423.0333333333333,10601,1.295597900219639,0.0629605878038793,0.4477129745013794,0.3716591072073452,0.1533543539192053,0.118247731044241,0.8574603273463102,0.714948084096968,0.2969514183299013
04-06-09_16-01-13_stroopeasy.txt,4,0.5324771086783341,0.4044284994136382,0.2835413226438598,8505.956137993151,211.65250195804208,418.1666666666667,10102,1.3185792468220594,0.0968391992850381,0.6726745281777684,0.5624708812629002,0.2432983060657559,0.1559970591173656,1.108313232132126,0.9230952873232916,0.4038624604987506
04-06-09_16-01-13_stroopeasy.txt,4,0.5467907064883655,0.4139377247872111,0.2989900430368136,8969.402301061373,209.94959062040203,419.2,10106,1.3228367803107255,0.0940115405362887,0.6842714086969375,0.5860349727529596,0.2443924892300544,0.1508436922959334,1.130960844673017,0.96485975938502,0.4068194419147283
04-06-09_16-01-13_stroopeasy.txt,4,0.5387827426324661,0.4055151093292944,0.2902965203092391,8708.605312756863,206.0509952724617,421.8,9849,1.292448779458326,0.0954719621589816,0.6760784178616769,0.5701198031292425,0.2386685776200134,0.1558511528067709,1.1080785849570207,0.9488017763412788,0.4009589426731034
04-06-09_16-01-13_stroopeasy.txt,4,0.5358750470353157,0.4078090840790015,0.2871716384230492,8614.861981053054,205.9956447341522,421.8333333333333,9863,1.2992427321942623,0.0953718814904943,0.6776356748074105,0.5737969474147754,0.2370339419002243,0.1526427291510108,1.130735560594534,0.9468188905674928,0.39307580981995
04-06-09_16-01-13_stroopeasy.txt,4,0.5275313241677976,0.4008164616562157,0.2782985745973831,8348.678939346897,206.8835975540822,420.1666666666667,9974,1.3109288595839148,0.0938503892373421,0.6628302858098034,0.5662794631746859,0.2351067782131426,0.1513101329546416,1.0639408401153905,0.9373593714433772,0.3903641141086477
04-06-09_16-01-13_stroopeasy.txt,4,0.5288960989679059,0.400667779271091,0.2797404081837416,8391.932505104065,210.18201872463752,417.8666666666667,10212,1.3081897898515826,0.0974087741049096,0.6633197298706354,0.563910134018404,0.2387807179265497,0.1561144233177667,1.0763731376668837,0.9307865927715442,0.3973249695253687
05-06-07_14-38-54_stroopeasy.txt,5,0.5039450737682301,0.3776784016303141,0.2539691030120339,7618.819121258005,220.2447138281673,415.76666666666665,11429,1.6214957642484829,0.118525437059326,0.5336573338086004,0.5630831778069001,0.2360420478929135,0.1950441947948439,0.9001427562808471,0.9481131517730884,0.3827830686908079
05-06-07_14-38-54_stroopeasy.txt,5,0.4252076463689752,0.3254461497942719,0.1808075694496251,5424.046275919305,210.0046708608389,420.6333333333333,10857,1.5028161994936855,0.0957721705064968,0.4458435910792432,0.4967518440017118,0.1968502071359272,0.1574832792198216,0.7267429521682477,0.8168170376170673,0.3198378309245363
05-06-07_14-38-54_stroopeasy.txt,5,0.3264108772603041,0.2486399377549247,0.1065476123809207,3196.3218238152404,209.153379538481,424.76666666666665,10333,1.6171143049155097,0.064648701021471,0.3573753484707989,0.3791013899175769,0.1400057972050647,0.1051283548141306,0.5916199135735772,0.6233716661188788,0.2302764728078994
05-06-07_14-38-54_stroopeasy.txt,5,0.2914096920673635,0.2257042815741424,0.0849224393787749,2547.588258923869,214.4707477177427,422.0333333333333,10387,1.574016521741517,0.0539407611616212,0.3247878415211403,0.3403506907219318,0.1301341015356106,0.0880054194942916,0.5126789803261156,0.5582606412480744,0.2115907115857708
05-06-07_14-38-54_stroopeasy.txt,5,0.2780035402120044,0.2165533812413715,0.0772885446552294,2318.5790511122277,214.36066683507775,421.5,10423,1.5784915362375944,0.0510662214421714,0.3148774123087853,0.3257282415769589,0.1239376086804333,0.0841476297982067,0.5192534637940933,0.5288777967700978,0.2022308916441985
05-06-07_14-38-54_stroopeasy.txt,5,0.2770874529342631,0.2136240670180567,0.076780015907461,2303.3236972079244,211.51384942280427,425.23333333333335,10244,1.6246627418929156,0.049768189839947,0.3230435549103512,0.3208540297461344,0.1178753588343855,0.0814534489243608,0.5279496834715277,0.5221413299033772,0.1925655687226986
05-06-07_14-38-54_stroopeasy.txt,5,0.2822423885623555,0.2142376506433637,0.0796634213487619,2389.8229770415105,206.512974376768,427.6333333333333,9964,1.6509568266950614,0.0559558259328055,0.3278992149525165,0.3227739622524089,0.1144123882161491,0.0920681836508394,0.5491922315108841,0.5354495839817335,0.188807433624657
05-06-09_13-13-54_stroopeasy.txt,5,0.4138427810024422,0.2989156874281308,0.1712715564397167,5137.975421635062,255.27015943454,389.1,16791,1.233569160853465,0.0753138833732762,0.4092224562149797,0.3239941633547092,0.2877736267551413,0.139572706247225,0.7581499561302603,0.5958091119927289,0.4408727649607547
05-06-09_13-13-54_stroopeasy.txt,5,0.4109857053863576,0.3229873565135998,0.1689148805279395,5067.277500957658,245.0193097394664,390.73333333333335,13695,1.1677423545103642,0.0849666608435826,0.4940250640706877,0.3816850585726756,0.2708569942624341,0.1382446790555611,0.8185755626944301,0.6261683976070063,0.4211520757951405
05-06-09_13-13-54_stroopeasy.txt,5,0.4083187817451213,0.3211203088296155,0.1667297851853262,5001.7268257746,239.4843886495532,392.6666666666667,13126,1.1826470344549005,0.0879616831561924,0.4905419015472075,0.3927855703163773,0.2557919693364078,0.1408693017955994,0.8075590212947327,0.6532075056104187,0.4022856515310817
05-06-09_13-13-54_stroopeasy.txt,5,0.4124786894720292,0.323737693168641,0.1701443407465876,5104.1600780568815,235.1248949087436,394.4,12890,1.17807404539576,0.0910164887668238,0.4931450429499389,0.4028060480734776,0.2566594392345709,0.148064341166683,0.8150383596456487,0.6575346043488757,0.4022164992205024
05-06-09_13-13-54_stroopeasy.txt,5,0.4073570816058136,0.3209992947322472,0.165945323445187,4978.193758032165,230.32083789975343,398.3333333333333,12419,1.1926460847308356,0.089017197951513,0.4889669396395106,0.4085105348530229,0.2450694801710871,0.1454860028288795,0.8066320766396867,0.6590481072955303,0.3861429431746216
05-06-09_13-13-54_stroopeasy.txt,5,0.3977456074688617,0.312435451904708,0.1582068418221679,4746.047047823215,224.43050465224616,402.73333333333335,12007,1.2308133306047844,0.0901085565130857,0.4718499441048339,0.4117016833497118,0.2307519581980781,0.1485990355149714,0.7858221139090509,0.674168214749401,0.3647675861532402
06-05-31_09-32-52_stroopeasy.txt,6,0.6283818754393505,0.3938439243880644,0.3948769439454737,11845.913441420264,192.965610097974,431.6333333333333,9930,1.6879875269924804,0.1207103354069711,0.7008644340510568,0.5444618549193893,0.1930766048039927,0.2304147241993306,1.3674770315854268,1.0210509448512146,0.3498627755939875
06-05-31_09-32-52_stroopeasy.txt,6,0.4201150778088435,0.3229606020502124,0.1765025620210647,5294.90035806992,206.2486167213303,421.8333333333333,10013,1.5962611966520492,0.0884510019878354,0.5078295055231238,0.4668785818227349,0.1785367652800038,0.1469467405141946,0.8480339072446627,0.7645158549817314,0.2951206111397866
06-05-31_09-32-52_stroopeasy.txt,6,0.3815920376710232,0.2946872690631855,0.145617337125161,4368.374496417707,210.45951366991844,420.0333333333333,10208,1.5924583351104216,0.0807377589228343,0.4619103631563714,0.4248089634422655,0.1648785706697633,0.1321560975650101,0.7500465661486151,0.6959713580982989,0.2707848858405325
06-05-31_09-32-52_stroopeasy.txt,6,0.3913610848192661,0.3085585886098853,0.1531686043310571,4594.904961327384,214.0100203036107,415.4333333333333,10678,1.4679727023204998,0.0805857121967811,0.4582372136737377,0.445143354965972,0.18583836231707,0.131907505806533,0.7599365452351029,0.7246274100230786,0.3031815310072883
06-05-31_09-32-52_stroopeasy.txt,6,0.3864028102565643,0.3078915038008631,0.1493121088444652,4479.213953225114,218.21784323983965,412.3666666666667,11081,1.424703036577344,0.0802462899549159,0.4207587998537627,0.450164971361151,0.1953255202215366,0.1303067156079995,0.6890130039838184,0.7153955097769537,0.3166405865478446
06-05-31_09-32-52_stroopeasy.txt,6,0.3554041829362451,0.2798213014007321,0.1263163437933731,3789.363997457399,214.91283252803916,415.26666666666665,10498,1.5050913179080627,0.0764947569548488,0.4092693820633549,0.4043616740638289,0.1692517019307008,0.1244455625099716,0.6573773951748845,0.659270784034694,0.2769020196806747
06-05-30_10-01-38_stroopeasy.txt,6,0.7076878889386862,0.5028898381474906,0.5008388427785868,15024.664444514829,202.39771413525,425.0,9799,1.609722689880339,0.1397788587169745,0.875616722284501,0.6986344429465116,0.2649820806226687,0.2350672200668812,1.468337505823198,1.202502294471046,0.452390705934433
06-05-30_10-01-38_stroopeasy.txt,6,0.3367765420473619,0.2449678462522831,0.1134222200140456,3402.553178201355,209.89190557505825,416.76666666666665,10589,1.486752503630549,0.0672753522984003,0.3915281225454682,0.3469758722106634,0.1462913052891718,0.1140502934609321,0.6726214859407323,0.5869706499410761,0.2432825765662245
06-05-30_10-01-38_stroopeasy.txt,6,0.3944828226999884,0.3011731117062962,0.1556218848015106,4668.500922160516,206.714637408322,419.4,9999,1.514543964644498,0.0864065113776958,0.4994679384787453,0.4254958600034424,0.1700215586254688,0.1418043165778614,0.8306740429965321,0.6966912850292423,0.2780981860268284
06-05-30_10-01-38_stroopeasy.txt,6,0.3837409480183427,0.2912099723815757,0.1472620239201471,4417.713455580493,208.5092726777076,417.6333333333333,10201,1.493129974475619,0.0858106263133151,0.4866577494395654,0.4058344953991183,0.1700925208151511,0.1397206334158757,0.8069338512752398,0.6667206404619005,0.2787616082709993
06-05-30_10-01-38_stroopeasy.txt,6,0.324403407857552,0.2445459448526731,0.1052410790655621,3157.127130887797,214.5953203600615,412.6333333333333,10629,1.4537265696534627,0.0704182856587345,0.3888654145746352,0.3435653132965622,0.1503370080308181,0.1163424300817527,0.6474952363791266,0.5729800638525778,0.2486719583832274
06-05-30_10-01-38_stroopeasy.txt,6,0.3576163752672277,0.2706176202500523,0.1278937349837701,3836.684155778119,208.1915048212944,417.73333333333335,10234,1.4799825680025718,0.0829577554193657,0.4458269635174871,0.3775521966331606,0.1571448283246878,0.1388445016890883,0.7438747930823808,0.6222572596011735,0.2575638951216459
06-05-30_10-01-38_stroopeasy.txt,6,0.3605016278477337,0.2694092589829345,0.1299657558727283,3898.842710425977,206.8655634246847,419.0333333333333,10080,1.5204816352569468,0.0811598945607404,0.4645287936455087,0.3724881324907644,0.1518978991925517,0.133579629075223,0.7734886505770731,0.6145849546991144,0.2505834464515587
06-05-30_10-01-38_stroopeasy.txt,6,0.3005341635223902,0.2235999687161434,0.090323794237244,2709.623503323084,216.8886813986926,410.6333333333333,11142,1.4679766233213662,0.0646863379379279,0.3382914457777272,0.3133504703314634,0.1417516569157106,0.10796235644394,0.591697536840101,0.5276849668886491,0.2341342711225584
07-05-31_13-56-24_stroopeasy.txt,7,0.3106598110218583,0.2251555900371024,0.0965127352753126,2895.2855455241024,229.74687648689223,408.26666666666665,13508,1.2936285564327583,0.0490247414974279,0.2117090841856972,0.3199050242979485,0.1785764730665806,0.089222617198112,0.410854954545606,0.5637528079661696,0.2910417950546375
07-05-31_13-56-24_stroopeasy.txt,7,0.4685790152731598,0.3535568813839661,0.2195736126747866,6586.988806630925,229.51415396482207,407.9333333333333,12289,1.4565682064870382,0.1091437882127933,0.4470839076548136,0.5244787680779697,0.2491404821313255,0.1830367446855668,0.7463151024965938,0.8843391063486382,0.4002297128694289
07-05-31_13-56-24_stroopeasy.txt,7,0.3962337227741954,0.302220275397108,0.1570063966100516,4710.034891904939,244.5075998960168,401.9333333333333,13041,1.484952685682307,0.0853831144929093,0.375660885099714,0.4344494481423048,0.2286566876923249,0.1393628949757931,0.6162858466943474,0.7284682551628924,0.3678382679173549
07-05-31_13-56-24_stroopeasy.txt,7,0.3795817949708214,0.2884598236257213,0.1440871419780033,4322.470172198121,238.2894574773444,404.3,12335,1.4532441996665366,0.081978677340465,0.3741025165143877,0.4192111881871991,0.2066621542303963,0.1327455654419131,0.6120564168354098,0.7017594912062894,0.3354319288858253
07-05-31_13-56-24_stroopeasy.txt,7,0.3909543353278623,0.2988274341731112,0.1528503873245614,4585.358769349517,226.74443036019807,410.4333333333333,11842,1.380222131744094,0.0826344173576203,0.3785999028398066,0.4436271230767766,0.2074211202906072,0.1359171334298617,0.6199596793237312,0.7395031478763835,0.3359922048221266
07-05-31_13-56-24_stroopeasy.txt,7,0.3567364548149652,0.2733661681940702,0.1272651403652952,3817.8269458184927,223.17263257749656,413.8333333333333,11940,1.3443246707981211,0.0734782590770191,0.3353953179663559,0.409768699984865,0.187056656038991,0.1206760315446042,0.5474793057652665,0.6839864869864516,0.3019046065771923
07-05-31_13-56-24_stroopeasy.txt,7,0.3618082885427549,0.2759889314869532,0.1309096013116144,3927.157129747121,218.3644165478354,417.4666666666666,11502,1.376457959834615,0.0728076176305008,0.3437129521814024,0.4223757907762841,0.1817614038909735,0.1202861992234761,0.5545483865488492,0.697083316189463,0.2960300227514973
07-05-31_13-56-24_stroopeasy.txt,7,0.3174537440810828,0.2378966579577814,0.1007802389723966,3023.3063889329283,222.82585300590893,413.5,12301,1.3249934407066524,0.0561644705828743,0.2789146670274158,0.3522635692687464,0.1695939554520083,0.0974397666942593,0.4852798462001995,0.5981155415151675,0.2745166695296844
07-05-24_15-09-13_stroopeasy.txt,7,0.4870752211963301,0.3330690389067361,0.2372501794427686,7117.2681331036165,228.8755450713913,402.4333333333333,13339,1.389451962048339,0.0849301475616309,0.4020484934475909,0.4770291744302691,0.2509007758976733,0.1716288537960537,0.7661338001000211,0.8625786799292035,0.4214973718079107
07-05-24_15-09-13_stroopeasy.txt,7,0.247308074753281,0.1962003382641117,0.0611633226155949,1834.8385151452328,260.9612615447358,386.3,14191,1.2144793561220608,0.0372303527327564,0.1813024031364614,0.2628970596995785,0.1795734786977989,0.060173847017786,0.2971973053337187,0.4134109268161722,0.2888664000689795
07-05-24_15-09-13_stroopeasy.txt,7,0.2278726061306549,0.1872777369448189,0.0519276555466281,1557.7777387432982,292.2070211056263,379.8333333333333,17080,1.022251107220982,0.0278043369629232,0.1087560442792003,0.2074655839657936,0.207511663157889,0.0446581601812817,0.176249486262729,0.3317927103275408,0.3276589415846649
07-05-24_15-09-13_stroopeasy.txt,7,0.2460539270330205,0.1980288629326171,0.0605445531601429,1816.2760502511296,279.2945625498924,379.5,16431,1.064050729690703,0.0319204993286707,0.1404480307898153,0.233539128522203,0.2074460403996994,0.0516182887327889,0.2370557542974348,0.3849693932812137,0.330579573330546
07-05-24_15-09-13_stroopeasy.txt,7,0.2637288380426312,0.2088617802200821,0.0695552185226005,2086.5870004594926,270.92071137543064,381.7,15819,1.1061625268690278,0.0380839516629126,0.1734346315136014,0.2594590685735408,0.2083218500831731,0.0641581956943253,0.2972544168967157,0.4215424292970549,0.3313066751303687
07-05-24_15-09-13_stroopeasy.txt,7,0.3238814375972264,0.2491996946309032,0.1049026823761252,3146.975568601381,241.90570599517557,393.6,13168,1.2771188727199418,0.0611520647009306,0.2827813801801367,0.3461586661607553,0.2028668128428102,0.1041006944047287,0.4822167616159685,0.5833313591645554,0.3257573088032335
07-05-24_15-09-13_stroopeasy.txt,7,0.3610748438151208,0.2782981729218518,0.1303793888157411,3911.251285083417,235.55087402016545,397.4333333333333,12626,1.3533409137937196,0.0729841877076704,0.3520547544595956,0.3962972282311296,0.2092488520938245,0.1210421508666775,0.5759727292940812,0.6562094218856679,0.3397393269556722
07-05-24_15-09-13_stroopeasy.txt,7,0.6828180764910528,0.4457314171375213,0.4662560674518561,13987.215767488233,222.1789049564157,409.1666666666667,12871,1.5024761106317417,0.1393805476543665,0.621485663937592,0.6263244932688523,0.312261501472814,0.2673323159493487,1.1546139686231205,1.1726509020360123,0.5399006510162406
08-06-01_09-29-41_stroopeasy.txt,8,0.5593391522516334,0.2285355011978065,0.3128707162654515,9385.80861724728,199.1636590187382,423.3666666666667,11038,1.400665983634478,0.0675548456641276,0.3489031456580409,0.3350901656144701,0.1333923984586274,0.1827432498629818,0.9705344595777456,0.8644386613862124,0.3389203062033951
08-06-01_09-29-41_stroopeasy.txt,8,0.1697984078083356,0.1266366012681846,0.0288324603762583,864.9449788273753,224.22455808709657,407.76666666666665,11804,1.4367582987334362,0.0388016587942716,0.1519893021252191,0.1908830978470311,0.0881446028870283,0.0639315619043573,0.2586890454066994,0.3165139490083649,0.1460776277374117
08-06-01_09-29-41_stroopeasy.txt,8,0.1579988642113061,0.1203982757452313,0.0249644732411708,748.9092327618828,217.2281018600224,414.0333333333333,10810,1.5882607131535054,0.0377103415774937,0.1626293146784718,0.1824349960223265,0.0752141692178825,0.0621208032042609,0.2657425597977244,0.2989133297317415,0.1251657841263849
08-06-01_09-29-41_stroopeasy.txt,8,0.1434876217190444,0.1083172327162932,0.0205893838993842,617.6609275976275,219.64221116904,413.1666666666667,11045,1.5569526271185856,0.033118273238969,0.1391609956483017,0.1644911624568344,0.0684226211598426,0.0544423898659532,0.2311281683878914,0.2735819721978713,0.1143899337501551
08-06-01_09-29-41_stroopeasy.txt,8,0.1468153567592734,0.1109534764562084,0.0215554674959359,646.6424694105825,216.97014251845587,415.1666666666667,10711,1.5800323482161904,0.0356461588103388,0.1500430462528989,0.168758589127294,0.0684344586455406,0.0581373245600598,0.2453834517907056,0.2767087604236508,0.115415278997222
08-06-01_09-29-41_stroopeasy.txt,8,0.142012842033567,0.1049319590112665,0.0201683195797701,605.0294190735257,213.0164635573907,417.26666666666665,10440,1.656342809859657,0.0364226449586441,0.1501799377140846,0.1589163562182945,0.0622712248591101,0.0602605483613708,0.2496649233902154,0.2678115743841822,0.105057038727543
08-06-01_09-29-41_stroopeasy.txt,8,0.1428546710698018,0.1052706521713934,0.0204081373177051,612.2237113938379,214.0849319942266,417.8666666666667,10519,1.6495301926623984,0.0356116388555468,0.1480025787639739,0.1607928266899288,0.0628939772198964,0.0588623804780471,0.2433377317166746,0.2715209452160666,0.1060651436946756
08-06-01_09-29-41_stroopeasy.txt,8,0.6880109981724458,0.3616488361583537,0.4733749127700042,14200.774008187356,200.67373432232893,423.73333333333335,10496,1.4766058256612589,0.1203553057855406,0.5667285323249732,0.5229879768932985,0.210579377109496,0.2692290102003437,1.249000046037614,1.1140797678614351,0.4491199768206291
09-05-27_08-20-57_stroopeasy.txt,9,0.7677548447665732,0.4527413475535821,0.5894671505675638,17683.425049876347,207.4900867768888,419.1333333333333,11706,1.583837211719182,0.1484392440830723,0.6775161844575253,0.6683114402083629,0.267742332780338,0.2886385679651623,1.320795676463064,1.3301141400211678,0.5135898253896009
09-05-27_08-20-57_stroopeasy.txt,9,0.4390682554715807,0.3217083091265895,0.1927873592081642,5783.427988885718,213.5843285862508,414.6,10329,1.5300152752081777,0.1009628916377936,0.4929873095960489,0.4718025577979147,0.1923967770729832,0.1681722310814018,0.8043678613034245,0.7951213116372882,0.3257746078843571
09-05-27_08-20-57_stroopeasy.txt,9,0.3089353913293519,0.2243847822838118,0.0954442574910695,2863.2322804745945,222.1225333073447,407.8,11294,1.4882805608400551,0.0683810531751815,0.3356707628345449,0.3211824482170795,0.1480672747512096,0.1155148860832406,0.5684845919161992,0.5436932502425867,0.2495242180775953
09-05-27_08-20-57_stroopeasy.txt,9,0.2304874064504997,0.1724903131202363,0.0531262154061247,1593.7333359683355,237.29323226598123,396.9,12544,1.375133108853896,0.0460497214984996,0.235753231599559,0.2412947934617111,0.1291724505778906,0.0765082809862783,0.3979597562798049,0.4046564454258565,0.2121584022332634
09-05-27_08-20-57_stroopeasy.txt,9,0.1711921812587954,0.1331898165029466,0.0293077398488059,879.2028877243282,263.24300097228496,381.1,14349,1.2060430509264772,0.0283019130174039,0.1507680556109015,0.1720097891135498,0.1207694546472853,0.0474750331040163,0.2541549510068777,0.2809999722238069,0.1965452704574436
09-05-27_08-20-57_stroopeasy.txt,9,0.1484616354367523,0.116113079477703,0.0220415919162857,661.2257158966548,269.0917687890925,378.4333333333333,14665,1.176283556550081,0.0235759829633632,0.1196960653745017,0.1498182278958684,0.108735030020955,0.0392722550914079,0.1965882096924033,0.2447051639710247,0.1774996344149551
09-05-27_08-20-57_stroopeasy.txt,9,0.1276043328798479,0.0991401390295748,0.016283408549996,488.48597309133146,261.21897836686577,384.4,14237,1.2374455613363793,0.0200220612760216,0.1044419175612013,0.1307034432231807,0.0894664294295204,0.0362560068265906,0.1801158454892958,0.2143790407730118,0.1442336234633075
09-05-27_08-20-57_stroopeasy.txt,9,0.1449682575175894,0.1147946061656982,0.0210164962375607,630.4738706305837,261.77499521086503,385.5333333333333,13896,1.2409265575331334,0.021900673142053,0.1092137200787424,0.1554724092525529,0.1018570217269359,0.0360973260162437,0.1872266992838175,0.2518097557211841,0.1652923702870405
09-05-25_08-25-09_stroopeasy.txt,9,0.1303318779109193,0.098507261677273,0.0169869646319411,509.5919519936039,258.1447198330742,386.6333333333333,14434,1.2158691092111238,0.0186958866920186,0.0915796778990858,0.1312435864728885,0.0908163454496997,0.030669048102359,0.1632452393201879,0.2206419133314816,0.1481499485744099
09-05-25_08-25-09_stroopeasy.txt,9,0.2257597714703411,0.1469994649817495,0.0509691733867868,1529.0242324302194,229.50236755967927,408.6,12649,1.4791530192477167,0.0322136227691697,0.186886043893128,0.2149204035780733,0.1075372228168986,0.0617746628817162,0.3558267693317896,0.3959109777183955,0.1855262411374681
09-05-25_08-25-09_stroopeasy.txt,9,0.3078926115697115,0.2217556442937588,0.094801020293227,2843.935807776518,222.27152566947387,414.4666666666666,10890,1.505565156568598,0.0531325304033155,0.3072678259028648,0.3354685451657379,0.137777611223502,0.0906371286202088,0.5245536650858479,0.5724396994876846,0.2357467895671753
09-05-25_08-25-09_stroopeasy.txt,9,0.3838351059945052,0.2794185854725894,0.1473342997371376,4419.881657814391,218.12665605840928,418.1,10542,1.5094774826643922,0.0686128465493472,0.3944173137727738,0.4248998332237272,0.1692411900144262,0.1148105213812032,0.6675713216425033,0.720749240282727,0.2878457440211724
09-05-25_08-25-09_stroopeasy.txt,9,0.4774857800083325,0.3457940669109399,0.2280002701191697,6839.780103304972,214.88629624512384,420.73333333333335,10504,1.4983709858310144,0.0843803580438791,0.4850725911400158,0.5331690601936978,0.2032031405872605,0.1400203068327244,0.7982642956143565,0.8973734992918939,0.3469495439652752
09-05-25_08-25-09_stroopeasy.txt,9,0.7662122230529881,0.5757957633837418,0.5871007407804947,17612.43512267406,211.97217432404776,423.0333333333333,10261,1.5366282070812445,0.1606784131141191,0.7954236886894938,0.8975534854143884,0.3282552983012068,0.26504705556721,1.3039681567390309,1.483642130505716,0.5517640696313518
09-05-25_08-25-09_stroopeasy.txt,9,0.5784867846566968,0.4333741515648647,0.3346581152929533,10039.408800673304,215.75409652656904,421.9333333333333,10271,1.547625023801945,0.1062836999601068,0.6156819976187259,0.6652485566083925,0.2498639654263828,0.1743220323552719,0.9999074326219022,1.108826570963702,0.420600792273034
09-05-25_08-25-09_stroopeasy.txt,9,0.5072840423874813,0.3821801814819875,0.2573456778502456,7720.112989829517,214.13510681389528,421.0,10292,1.5596789517942846,0.0945652177242606,0.5556559644881872,0.582447479754353,0.2182659370486531,0.1581855876791093,0.9259500511425172,0.9620494080297252,0.363893712474884
09-05-25_08-25-09_stroopeasy.txt,9,0.4636356738873307,0.3457229550576968,0.2149652036077462,6448.741143028778,216.62316488081072,419.8333333333333,10563,1.551815538459358,0.0791182682125245,0.5077554010524385,0.5187075745446897,0.2027792755255476,0.132448931672861,0.8416094692142643,0.8636751943853247,0.339044965802782
09-05-25_08-25-09_stroopeasy.txt,9,0.5253992345173112,0.3461903168538212,0.2760535574166238,8281.330668941297,215.14011972630016,418.6333333333333,11533,1.539749324860873,0.0807752262755844,0.4803418203213686,0.5184481833475921,0.2114177272848658,0.1522781907689803,0.880539413304765,0.9565722485447602,0.3744479854115115
09-05-25_08-25-09_stroopeasy.txt,9,0.3028716294582146,0.1692333431052414,0.0917342817400654,2751.936717920222,227.55432739569105,408.5333333333333,15348,1.4643039277884236,0.0330706674639195,0.1883954209543774,0.2298077913304259,0.1376585394917108,0.0713753505361739,0.44003686124429,0.5088551579408396,0.2447272566347435
09-05-25_08-25-09_stroopeasy.txt,9,0.1149109302162253,0.0926377313430473,0.0132049620485598,396.13565649474623,295.08593700964605,376.3,17389,0.9977498879596916,0.0137609426058392,0.0605217753478326,0.1012649320433909,0.103791726656404,0.0228549025217134,0.0997980349460889,0.1632165415007184,0.1668263231773567
09-05-25_08-25-09_stroopeasy.txt,9,0.1123602534226046,0.0903415129722833,0.0126252473907716,378.74479647575833,304.6854784497947,376.9333333333333,18319,0.9410462205744832,0.0126584615449019,0.0551752588359749,0.090909429650352,0.1056616854449096,0.020666510978323,0.0889481806394981,0.1468895702117076,0.1689404992162765
09-05-25_08-25-09_stroopeasy.txt,9,0.1527825480124526,0.1139375108302551,0.0233432850866802,700.2752093153222,267.5757758722917,381.06666666666666,15850,1.1668929034589413,0.0204740426678775,0.1127810881092535,0.1387965377946914,0.1113139647626152,0.0355885155631477,0.2040909444371896,0.2389492158071585,0.1796329139189863
09-05-25_08-25-09_stroopeasy.txt,9,0.1312404303810114,0.1037262328857645,0.0172246247207504,516.721516997793,273.2504771351784,378.73333333333335,15617,1.0899576957780128,0.0188743251970079,0.0949085129787413,0.1267586061138048,0.1044299563139743,0.0301165960690585,0.1569881331191012,0.2092684013615111,0.1677138956786797
09-05-25_08-25-09_stroopeasy.txt,9,0.1497271445217308,0.1155673267329748,0.0224189651054681,672.5465341989385,261.0324212104096,384.1,14736,1.1756903755056325,0.0214059787049442,0.120882884151026,0.1504335419002639,0.1056498769830103,0.0345282063524864,0.2078339097049621,0.2470936234540068,0.1695693299301462
09-05-25_08-25-09_stroopeasy.txt,9,0.1179422337073916,0.0922735174630632,0.0139108341863618,417.3111147566697,290.65878160325303,375.1,16931,1.0451267432771705,0.0152509229831005,0.0713813663582574,0.1042886883009992,0.0999650023588095,0.0251647075262713,0.1166404029357128,0.1684493780115883,0.1629364583284829
09-05-25_08-25-09_stroopeasy.txt,9,0.1167111748718956,0.0922708235946958,0.0136219524050583,408.64495019934594,289.6026863762334,374.5333333333333,16811,1.0379276633997756,0.0155229980487316,0.0760422745706548,0.1039369516010205,0.0995199472104238,0.0261722507414903,0.1292580546020783,0.1724852921437013,0.1604433601467035
10-06-07_09-17-37_stroopeasy.txt,10,0.3248192541542066,0.2261138106014343,0.1055110649047919,3165.226436078852,222.75326343053305,406.6666666666667,13123,1.5151983760557797,0.0730166378185142,0.2971841049278905,0.3112745115622221,0.1627922039878909,0.1361394488940989,0.551380651875663,0.5600090620433859,0.2698556217030495
10-06-07_09-17-37_stroopeasy.txt,10,0.4018475586968185,0.3047415753947367,0.1614868433253704,4844.443812917789,213.9318434351973,414.6666666666667,10763,1.5211717038931762,0.103862712489029,0.4792996614991488,0.4266274320113027,0.1944535295047069,0.1698891816850679,0.7884816256258633,0.705189270710894,0.3176320506815166
10-06-07_09-17-37_stroopeasy.txt,10,0.39276903284036,0.3002216843980625,0.1542726555802044,4628.0253947505535,207.13625955784903,417.9,10417,1.472191553268953,0.1069010736566974,0.4822845026343033,0.4226148116958824,0.1836615599960272,0.1756274508170718,0.7926888773116306,0.6923567848800817,0.3002890889972674
10-06-07_09-17-37_stroopeasy.txt,10,0.3582076902875619,0.2715859972568735,0.1283170266153704,3849.3824814344966,211.8067506041172,414.76666666666665,10919,1.4608627927987596,0.0909287862229629,0.4223194207887304,0.3802418865900575,0.1755320650873905,0.1478744957934953,0.7005937411112664,0.6301807089835126,0.2864760921211431
10-06-07_09-17-37_stroopeasy.txt,10,0.3621101591711676,0.275127751258819,0.1311281383129121,3933.7130212490497,216.02246979053328,412.06666666666666,11240,1.4687105249027597,0.0944299673318139,0.4312326046442077,0.3839115997245073,0.1822850641577615,0.1526232841940371,0.7056869952837249,0.6314228791479316,0.2957998364997125
10-06-07_09-17-37_stroopeasy.txt,10,0.3679212450292248,0.280201621007028,0.1353705548956847,4060.981276315648,226.2419377121274,407.23333333333335,11877,1.5754914275896763,0.0933446284345804,0.4420777674754433,0.3815873618413408,0.1906986365315487,0.1548939593400519,0.7285449670465722,0.6287109490134597,0.3084694787855144
10-06-07_09-17-37_stroopeasy.txt,10,0.3303601330640866,0.2456730817639611,0.1091414555666399,3274.134525543631,229.75776826808112,403.0,12900,1.5394417958126931,0.0800398273897946,0.3754943626392273,0.3247668559872487,0.1780405346123627,0.1357765931612336,0.6324496712073014,0.5546793052892174,0.2859346849199947
10-05-30_15-58-31_stroopeasy.txt,10,0.6674845541789994,0.489315461603812,0.4455504817502626,13366.068902026129,274.09322093401283,379.8,17505,1.1598496723600489,0.1015744730561559,0.489727735500243,0.5429265450701293,0.5022973252089006,0.1888545678240156,0.9218285678337614,0.9663448104024964,0.818329173947513
10-05-30_15-58-31_stroopeasy.txt,10,0.6020855869858259,0.4709865811902329,0.3625191380273341,10875.211621681998,294.2677624212536,376.5333333333333,19364,0.9581273392154632,0.0803864627159512,0.3722334140575227,0.4616963595828246,0.5425130164814086,0.1426639176027205,0.6617670974967248,0.7993655040951771,0.857159598525334
10-05-30_15-58-31_stroopeasy.txt,10,0.526302545720321,0.4302153357426654,0.2770036030851267,8309.831088950716,323.4116271759822,385.8666666666667,21171,0.8240722221295359,0.0521774264543872,0.2472129177400283,0.3563749488953573,0.5434025838272685,0.0863173594859332,0.4060601176888505,0.5975922511097824,0.8495072266201628
10-05-30_15-58-31_stroopeasy.txt,10,0.5127511054132927,0.4229454270603267,0.2629224601845598,7887.41088307661,325.65649301988856,385.9,21292,0.8246864050751177,0.0492123113837366,0.2293058817415433,0.3433303931176814,0.5366159544947169,0.081655787379285,0.3687010937849712,0.5462050473431751,0.8368212775450444
10-05-30_15-58-31_stroopeasy.txt,10,0.5230513294661973,0.4249950786834218,0.2735918129834559,8207.480797690694,320.07504079466145,383.9666666666666,21251,0.828898556838124,0.048305177281911,0.2440995474289148,0.3469344252106333,0.5367436411842469,0.0814345317805172,0.4049954776915077,0.6054450255537304,0.838542525908701
10-05-30_15-58-31_stroopeasy.txt,10,0.5179452363450417,0.4272878665025055,0.2682762103928676,8048.018035575635,319.9865113046347,381.8333333333333,20622,0.8692087670592415,0.0504290747550982,0.2308906112791761,0.3664790528678336,0.5346400451324891,0.0797295853762383,0.3762803318860822,0.5559438491223669,0.8347156290201816
10-05-30_15-58-31_stroopeasy.txt,10,0.5136788339114031,0.42363015118096,0.2638747402332533,7915.978332257366,322.7488994020185,383.8333333333333,20754,0.8542924950873412,0.048173659149695,0.2278613558468198,0.3566367158553243,0.5348225436061168,0.0764168096027588,0.3620361572074085,0.5391925990378278,0.8337214058863005
