filename,patient,rmse,mav,var,energy,mnf,mdf,zc,fr,mav_arr_0,mav_arr_1,mav_arr_2,mav_arr_3,std_0,std_1,std_2,std_3,ID,Task,File_number,STAI_Total,Fatigue,Stress,Mental_Demand,Physical_Demand,Frustration,NASA_Total,PSS,NARS_S1,NARS_S2,NARS_S3,Age,Sex,Experience
10-06-07_09-59-18_cobot.txt,10,0.2678726049879948,0.1766262024585757,0.0717581244405356,2152.67197509163,211.97772943159487,416.6333333333333,10542,1.626816253176507,0.0620249958368388,0.2802287387897032,0.2531948958113976,0.1044222210680362,0.1123283997606886,0.4941926738902049,0.4651219202117791,0.1867532432234678,10.0,COBOT,5,35.0,2.0,8.0,3.0,3.0,3.0,36,14,10,17,10,37.0,1,2.0
10-06-07_09-59-18_cobot.txt,10,0.3596475935321532,0.2433958570355961,0.1293507032235763,3880.391746004067,208.6494327008945,418.9666666666666,10397,1.6261403045079097,0.0801095722515407,0.3822735231203,0.3535577729572779,0.1386738647792577,0.1436200541993774,0.6778601471795438,0.6309556521343755,0.2469009206621221,10.0,COBOT,5,35.0,2.0,8.0,3.0,3.0,3.0,36,14,10,17,10,37.0,1,2.0
10-06-07_09-59-18_cobot.txt,10,0.2758939622332003,0.1883610592201801,0.0761200157305922,2283.524351902037,213.79801420456656,415.4666666666666,10836,1.6332854037970312,0.0615571201117407,0.3001830398093726,0.2662105051062187,0.1119172878566486,0.111719377044994,0.5258893323250188,0.4779628511821966,0.1959040036100732,10.0,COBOT,5,35.0,2.0,8.0,3.0,3.0,3.0,36,14,10,17,10,37.0,1,2.0
10-06-07_09-59-18_cobot.txt,10,0.4085795928234659,0.2774879148893819,0.1669428484334036,5008.118510153675,216.52394703725776,415.9666666666666,11373,1.6947213108799348,0.0935280798465124,0.4126668377933306,0.3952919880601813,0.1733988526195624,0.1683360977561312,0.7317370105455808,0.7153302259240649,0.3034774577771906,10.0,COBOT,5,35.0,2.0,8.0,3.0,3.0,3.0,36,14,10,17,10,37.0,1,2.0
10-06-07_09-59-18_cobot.txt,10,0.3646912200939858,0.2518508380892637,0.1330041194842895,3989.9905804092,219.89753544828315,413.1333333333333,11853,1.6767089576382028,0.0850119421144781,0.3771333525143742,0.3543765636793858,0.1596450854868641,0.1533362668391589,0.6687559391588578,0.6349306581611021,0.2728378460252988,10.0,COBOT,5,35.0,2.0,8.0,3.0,3.0,3.0,36,14,10,17,10,37.0,1,2.0
10-06-07_09-59-18_cobot.txt,10,0.3568996154970983,0.2465336519371469,0.1273815815946964,3821.320066259298,227.4432288949246,407.4,13083,1.6154917746719175,0.0801044094362945,0.3749703144402399,0.3278775845365855,0.1720044985190797,0.1483875235291409,0.6787205200956533,0.5925139800964514,0.2849800114060188,10.0,COBOT,5,35.0,2.0,8.0,3.0,3.0,3.0,36,14,10,17,10,37.0,1,2.0
10-06-07_09-59-18_cobot.txt,10,0.3126936296067167,0.2204583748648096,0.0977805653488008,2933.3191798986763,221.61534075834516,409.4333333333333,11898,1.5944126468443536,0.0697462565777271,0.3189317526250695,0.3088696839186386,0.1453149628455226,0.1253288588643762,0.5664873875068963,0.5396700572134354,0.245811185371156,10.0,COBOT,5,35.0,2.0,8.0,3.0,3.0,3.0,36,14,10,17,10,37.0,1,2.0
10-06-07_09-45-55_cobot.txt,10,0.3485429162618936,0.2355701174011271,0.1214862140168126,3644.464934290361,209.0573429449411,417.8,10201,1.6129928612090256,0.0822158145131521,0.3886224926470555,0.3349642516538081,0.1343833319535972,0.1476732610345393,0.6829430781957444,0.5956233626104787,0.2420547899123848,10.0,COBOT,3,28.0,2.0,9.0,4.0,3.0,2.0,40,14,10,17,10,37.0,1,2.0
10-06-07_09-45-55_cobot.txt,10,0.3336345263283263,0.2358056330819148,0.111315707681916,3339.359914749799,217.47066091383067,413.3,10876,1.6261166219284675,0.0758390866364608,0.3663546641752003,0.3366374117596881,0.1435660727264458,0.1306465799688626,0.6171586695483476,0.5884120764589243,0.2481039961851696,10.0,COBOT,3,28.0,2.0,9.0,4.0,3.0,2.0,40,14,10,17,10,37.0,1,2.0
10-06-07_09-45-55_cobot.txt,10,0.3684854987917634,0.2518022599882999,0.1357860890227821,4073.4468845944407,210.91583921196536,418.1,10763,1.624290975081791,0.079631470619934,0.387546673584045,0.3624774761034359,0.1469080918899889,0.1418124457924906,0.7035761386180381,0.6430408900499228,0.2549141232698461,10.0,COBOT,3,28.0,2.0,9.0,4.0,3.0,2.0,40,14,10,17,10,37.0,1,2.0
10-06-07_09-45-55_cobot.txt,10,0.290383412217132,0.2070971135945119,0.0843253369354293,2529.6757827259444,223.241082509966,407.9,11737,1.5246107920609149,0.0574490354383129,0.2873919441605704,0.2914257204061126,0.1401677212741824,0.1036159144969905,0.489130732463522,0.5106020389188136,0.2370249852111916,10.0,COBOT,3,28.0,2.0,9.0,4.0,3.0,2.0,40,14,10,17,10,37.0,1,2.0
10-06-07_09-45-55_cobot.txt,10,0.3854210531180936,0.2653787306892308,0.1485543399979936,4456.481645599812,212.11748035726927,416.26666666666665,10940,1.6089992803099618,0.0852708278280919,0.3958330441690281,0.3799954339166116,0.162431470938612,0.1545839234630864,0.7050410368805089,0.6785233464671895,0.2806779845421542,10.0,COBOT,3,28.0,2.0,9.0,4.0,3.0,2.0,40,14,10,17,10,37.0,1,2.0
10-06-07_09-45-55_cobot.txt,10,0.3826880447149804,0.2706832151252309,0.1464550214018216,4393.504187033246,217.05052332665915,412.6333333333333,11228,1.579454255665373,0.0833258484253016,0.3998042913714284,0.3860895981780982,0.1692401157599763,0.1488769415619334,0.6878097294564562,0.6779400460787032,0.2890843935597742,10.0,COBOT,3,28.0,2.0,9.0,4.0,3.0,2.0,40,14,10,17,10,37.0,1,2.0
10-06-07_09-45-55_cobot.txt,10,0.3613157162502138,0.2638635478179246,0.130553398589358,3916.47140428215,214.5199180497095,412.6,11061,1.559487602070621,0.0804673364054708,0.3821602798821395,0.3812843471778253,0.1644533637799272,0.1417362632740181,0.6551891776996732,0.6517602993840149,0.2756664912307811,10.0,COBOT,3,28.0,2.0,9.0,4.0,3.0,2.0,40,14,10,17,10,37.0,1,2.0
10-06-07_09-38-23_cobot.txt,10,0.1969228256996557,0.1465693917900114,0.0387798919446018,1163.35797844611,217.3310535226325,413.23333333333335,10674,1.5540207237778465,0.045115284907093,0.2119540590235385,0.2156391650764335,0.0894514183646109,0.0732859736987631,0.3547142053559617,0.3612881485828007,0.1504580604698988,10.0,COBOT,2,29.0,1.0,7.0,3.0,2.0,2.0,33,14,10,17,10,37.0,1,2.0
10-06-07_09-38-23_cobot.txt,10,0.3462900869067087,0.2439796501773089,0.1199208216505776,3597.5047286956774,206.6483545169788,419.8,10142,1.6058135741921185,0.0836197749667275,0.375004486535496,0.3593870317126084,0.1381162211999181,0.1419529625716786,0.6440452450332472,0.6272259791684516,0.2413540163293628,10.0,COBOT,2,29.0,1.0,7.0,3.0,2.0,2.0,33,14,10,17,10,37.0,1,2.0
10-06-07_09-38-23_cobot.txt,10,0.3444079228122751,0.2315409354126076,0.1186207713215767,3558.5045188759814,208.4784200719701,419.06666666666666,10356,1.6256508978083068,0.0779974488118299,0.3709871241091457,0.333382617609314,0.1331623689035271,0.142021568211691,0.6542641723449749,0.6011181983019269,0.2372125651101768,10.0,COBOT,2,29.0,1.0,7.0,3.0,2.0,2.0,33,14,10,17,10,37.0,1,2.0
10-06-07_09-38-23_cobot.txt,10,0.3716762629331182,0.2473478792355811,0.1381478493562402,4144.297332837852,208.85375912871083,419.6333333333333,10709,1.6275502916520792,0.0819026159571614,0.3694531888021697,0.3636692214313874,0.1463952264624179,0.1556255052277715,0.6916441812181725,0.6569463595538961,0.2596909676266792,10.0,COBOT,2,29.0,1.0,7.0,3.0,2.0,2.0,33,14,10,17,10,37.0,1,2.0
10-06-07_09-38-23_cobot.txt,10,0.3060023710875322,0.2157148009166927,0.0936405724636072,2809.1235333357536,211.7287947240977,416.3666666666667,10712,1.581002774745468,0.0661039924828248,0.3183190088378954,0.3158214251676363,0.1294842731750941,0.1171225735788364,0.5603260920506297,0.5482398479476722,0.224548228376872,10.0,COBOT,2,29.0,1.0,7.0,3.0,2.0,2.0,33,14,10,17,10,37.0,1,2.0
10-06-07_09-38-23_cobot.txt,10,0.3337983747799942,0.2368153095462105,0.1114250691747379,3342.6406501729634,212.72755503933587,416.0,10642,1.5849393883841618,0.0753845986666334,0.3505390269814849,0.3480975230972192,0.1429841393933261,0.1310994410209723,0.5993116424316891,0.6029414993433581,0.2482450962899183,10.0,COBOT,2,29.0,1.0,7.0,3.0,2.0,2.0,33,14,10,17,10,37.0,1,2.0
10-06-07_09-38-23_cobot.txt,10,0.4161543416399145,0.2831836586765157,0.1731902090727198,5195.53308197252,207.724177160195,419.1666666666667,10345,1.5974558667316194,0.0931108540862246,0.4434060476999834,0.4136374568049301,0.1619523685763351,0.1646766342707604,0.7815034068781019,0.7300204671425102,0.2878337206614442,10.0,COBOT,2,29.0,1.0,7.0,3.0,2.0,2.0,33,14,10,17,10,37.0,1,2.0
10-06-07_09-38-23_cobot.txt,10,0.3828399946086039,0.2795324321740724,0.1465713471834886,4396.993844157476,210.83291742060527,415.0333333333333,10857,1.496711764532358,0.0909912588363355,0.4172552523486622,0.4041184248955942,0.1722708384996366,0.1549112130603911,0.7114817272244081,0.6867972356394015,0.290930062213067,10.0,COBOT,2,29.0,1.0,7.0,3.0,2.0,2.0,33,14,10,17,10,37.0,1,2.0
10-06-07_11-10-25_cobot.txt,10,0.2502291431591956,0.1918704620378543,0.0626167113098955,1878.438722585556,230.25632525048175,402.7,12977,1.2969014002213486,0.0475023211371457,0.1962913140968002,0.2749184186322456,0.1501535139031525,0.0850112449857488,0.3465263984268641,0.4535148292878586,0.2434547113625234,10.0,COBOT,15,38.0,2.0,11.0,3.0,4.0,4.0,47,14,10,17,10,37.0,1,2.0
10-06-07_11-10-25_cobot.txt,10,0.3738631965197599,0.2683168052205256,0.1397783489902723,4193.210691359179,214.9870126964126,411.9666666666666,11558,1.437132328662662,0.0799408323943142,0.3614736623076063,0.391183919398246,0.1798110228549782,0.142119129175653,0.6440322413076551,0.6699475534734222,0.3019318460430779,10.0,COBOT,15,38.0,2.0,11.0,3.0,4.0,4.0,47,14,10,17,10,37.0,1,2.0
10-06-07_11-10-25_cobot.txt,10,0.2795115002427998,0.2095052339093343,0.0781292830774166,2343.8003630394214,238.9319900021714,393.1666666666667,14067,1.2548514243743747,0.0496899683939729,0.2259332759333904,0.2759664454831769,0.1764768197499665,0.0905597253372635,0.4236376767569932,0.4781377129623545,0.2828624515553297,10.0,COBOT,15,38.0,2.0,11.0,3.0,4.0,4.0,47,14,10,17,10,37.0,1,2.0
10-06-07_11-10-25_cobot.txt,10,0.3279528827915361,0.2328462429840936,0.1075566785538975,3226.592799938371,249.2631598530413,386.8333333333333,16416,1.2859270196534172,0.0564287109086888,0.2770874352516435,0.2740232083593591,0.2141497793686007,0.1112498168314499,0.5223499091537166,0.5121441644457257,0.3430039076884802,10.0,COBOT,15,38.0,2.0,11.0,3.0,4.0,4.0,47,14,10,17,10,37.0,1,2.0
10-06-07_11-10-25_cobot.txt,10,0.4043161474257984,0.2829952879471439,0.16347699630245,4904.146412077199,235.6288272582559,400.4333333333333,14083,1.5621131693399324,0.0839137946592022,0.4190530176101906,0.3604954856326597,0.2154612965788962,0.1529636761787585,0.7592260668190499,0.6528430867089468,0.3551460018070252,10.0,COBOT,15,38.0,2.0,11.0,3.0,4.0,4.0,47,14,10,17,10,37.0,1,2.0
10-06-07_11-10-25_cobot.txt,10,0.4894061881530855,0.3483885349182659,0.2395264012159072,7185.5525100760005,232.50305861577567,402.73333333333335,13805,1.5877464927241574,0.1103363669007748,0.5118718038624359,0.4611415190997262,0.2586356306722249,0.1976302233035074,0.8839928455891622,0.8169042137308963,0.4223557445646833,10.0,COBOT,15,38.0,2.0,11.0,3.0,4.0,4.0,47,14,10,17,10,37.0,1,2.0
10-06-07_11-04-53_cobot.txt,10,0.2040207061969591,0.1703454711980559,0.0416258360849754,1248.733456713178,257.99003657743384,391.8666666666667,15208,1.082019108167379,0.0281203208755013,0.1051889457283464,0.2121630114685635,0.1651734941644339,0.0516557745203679,0.1964944302457594,0.3462424624147351,0.2595471817217009,10.0,COBOT,14,41.0,2.0,12.0,3.0,4.0,3.0,46,14,10,17,10,37.0,1,2.0
10-06-07_11-04-53_cobot.txt,10,0.2814463602428248,0.2129732707466529,0.07921469418374,2376.3616108180177,230.82004691191588,400.76666666666665,13444,1.25487823742517,0.0475371877944678,0.226390557311677,0.2958589858702621,0.1700584400650452,0.0875153738976041,0.4155663806321057,0.4990621746909901,0.2732516991478236,10.0,COBOT,14,41.0,2.0,12.0,3.0,4.0,3.0,46,14,10,17,10,37.0,1,2.0
10-06-07_11-04-53_cobot.txt,10,0.4352877039788388,0.3005523569409243,0.1894817012918789,5684.261557055075,223.4677269049317,404.5,13395,1.4196124446179683,0.0829963651822619,0.4034786798140707,0.4059475210262073,0.225206844609718,0.1577767961649439,0.7501653297998256,0.7305856967945114,0.3743323904878204,10.0,COBOT,14,41.0,2.0,12.0,3.0,4.0,3.0,46,14,10,17,10,37.0,1,2.0
10-06-07_11-04-53_cobot.txt,10,0.4062952523682592,0.2890954591404787,0.1650813348081477,4952.274962909624,230.13534497943212,399.23333333333335,13880,1.3848954474644868,0.0809854831660991,0.3903262144738071,0.3761240014977792,0.2267963907554173,0.1495892339099649,0.704888935922586,0.6739033669029247,0.3688312491896554,10.0,COBOT,14,41.0,2.0,12.0,3.0,4.0,3.0,46,14,10,17,10,37.0,1,2.0
10-06-07_11-04-53_cobot.txt,10,0.3912328439390501,0.2751884451711686,0.1530682404513188,4591.894145299114,237.8331085966184,395.9666666666666,14718,1.4378549632042297,0.0768972396196776,0.361247545529202,0.3543492559322169,0.2205140792984965,0.1428500865306783,0.6583595781256497,0.6472228963621829,0.3593707938878183,10.0,COBOT,14,41.0,2.0,12.0,3.0,4.0,3.0,46,14,10,17,10,37.0,1,2.0
10-06-07_11-04-53_cobot.txt,10,0.4386333612314471,0.3152362227217591,0.1924056391065007,5771.976767555915,236.7766519227808,398.9666666666666,14250,1.504521050665057,0.0917303086569801,0.4558065620517933,0.4057737640754656,0.2442838248002014,0.1608987085183826,0.793562063056296,0.7162366898714542,0.3933726924940694,10.0,COBOT,14,41.0,2.0,12.0,3.0,4.0,3.0,46,14,10,17,10,37.0,1,2.0
10-06-07_10-41-09_cobot.txt,10,0.2276168882490744,0.1625258399903544,0.0518111748553534,1554.2834344857492,268.55892981542075,377.9,19193,1.112641715397325,0.030750538490659,0.1423490840202264,0.15397746693136,0.1773081616306104,0.0670276891216101,0.3182848907193664,0.3098450242113808,0.2795610424931865,10.0,COBOT,10,34.0,2.0,8.0,3.0,3.0,2.0,41,14,10,17,10,37.0,1,2.0
10-06-07_10-41-09_cobot.txt,10,0.2465834962394407,0.1790613307293052,0.0608054474659151,1824.1026185299888,265.05702952033005,381.73333333333335,17653,1.1940256303104655,0.0421017793627204,0.1885066933353166,0.1982732049929944,0.1809604636996781,0.080767522858517,0.3558683883368384,0.3703795875051005,0.2870926535510421,10.0,COBOT,10,34.0,2.0,8.0,3.0,3.0,2.0,41,14,10,17,10,37.0,1,2.0
10-06-07_10-41-09_cobot.txt,10,0.307798732606701,0.2240601444562127,0.0947432179015548,2842.201793828743,242.2155273755372,390.23333333333335,15212,1.307526985469691,0.0635459962971008,0.2836100869226742,0.2762022722193246,0.1942339860136196,0.1185220723577177,0.4984267914904065,0.4965213298866245,0.3103504932032274,10.0,COBOT,10,34.0,2.0,8.0,3.0,3.0,2.0,41,14,10,17,10,37.0,1,2.0
10-06-07_10-41-09_cobot.txt,10,0.3212650323969548,0.2326038606469155,0.103214661529734,3096.336631230493,222.7590814673614,403.4,12971,1.3764573801673423,0.0648123124857985,0.2986328805489622,0.3180004578672229,0.1755560996957781,0.1160822396202366,0.5351526020992318,0.5553911024317084,0.2855011956915857,10.0,COBOT,10,34.0,2.0,8.0,3.0,3.0,2.0,41,14,10,17,10,37.0,1,2.0
10-06-07_10-41-09_cobot.txt,10,0.3206095363659898,0.234090286280324,0.1027939012721906,3083.714244264448,216.7555979214709,408.7,12285,1.3864424589049211,0.067617795506769,0.3118360970343372,0.3307329747569139,0.1638934409712078,0.119540814220399,0.5538681901457173,0.5665937662964937,0.2690318742035857,10.0,COBOT,10,34.0,2.0,8.0,3.0,3.0,2.0,41,14,10,17,10,37.0,1,2.0
10-06-07_10-41-09_cobot.txt,10,0.41277520175713,0.2724141935200264,0.1703890468205334,5111.501015569182,209.84629660616,417.8,11202,1.630651781648063,0.0861869264770592,0.3934623274285564,0.3955253649982378,0.1660169984953524,0.1636072129042608,0.734470529551292,0.722485724756796,0.2945147937283381,10.0,COBOT,10,34.0,2.0,8.0,3.0,3.0,2.0,41,14,10,17,10,37.0,1,2.0
10-06-07_10-41-09_cobot.txt,10,0.495159270148825,0.3474299996563855,0.2451908758435118,7355.481084429512,209.15994484321368,418.0333333333333,10462,1.614370444569006,0.1177381051571309,0.5652418474928621,0.4902196299322956,0.1991795062431171,0.2046775913165807,0.9872743706868382,0.8561397807480625,0.3452922960701967,10.0,COBOT,10,34.0,2.0,8.0,3.0,3.0,2.0,41,14,10,17,10,37.0,1,2.0
10-06-07_09-30-59_cobot.txt,10,0.3253669580474383,0.2447546576881394,0.1058671862952533,3175.9097216713058,214.70776301909552,411.5,11335,1.4471010162601572,0.079702358404847,0.3561121664830664,0.3510796851536089,0.1617581360205127,0.1321998815485005,0.6040828855963132,0.5844139976144831,0.2653574265481652,10.0,COBOT,1,27.0,1.0,6.0,3.0,2.0,2.0,30,14,10,17,10,37.0,1,2.0
10-06-07_09-30-59_cobot.txt,10,0.3562241355262056,0.2628489773932426,0.1268998647268834,3806.869041941776,206.25162249417815,419.26666666666665,10380,1.524701668488064,0.0865079423648772,0.3831775410336628,0.392471792618037,0.1543925976052605,0.1444175757255254,0.6346162786538205,0.6544902478157368,0.2604096527749497,10.0,COBOT,1,27.0,1.0,6.0,3.0,2.0,2.0,30,14,10,17,10,37.0,1,2.0
10-06-07_09-30-59_cobot.txt,10,0.4420598383928192,0.3061264736718733,0.1954234148337132,5862.507021596563,202.0309698780112,422.23333333333335,10012,1.5888708907923057,0.105896229847943,0.4919626000531974,0.4483931806914486,0.1671720700535344,0.1887771555966214,0.858376296741268,0.7850220392021882,0.2947140601885142,10.0,COBOT,1,27.0,1.0,6.0,3.0,2.0,2.0,30,14,10,17,10,37.0,1,2.0
10-06-07_09-30-59_cobot.txt,10,0.3592644134592358,0.2374717209684013,0.1290752212855849,3872.127563346263,202.4133422248709,422.7,10276,1.620061366969637,0.0839233093151277,0.3710063041648411,0.3475436034101712,0.1321896217112884,0.1540814048564789,0.6718753653230779,0.6313942765642833,0.2381323337460028,10.0,COBOT,1,27.0,1.0,6.0,3.0,2.0,2.0,30,14,10,17,10,37.0,1,2.0
10-06-07_09-30-59_cobot.txt,10,0.2823044269947371,0.1852556563523945,0.0796984461156973,2390.8736850248056,206.29926319795368,419.1333333333333,10561,1.5921165483937794,0.063812676968969,0.2867428563877236,0.271319153710373,0.1075844796237622,0.1165122141273224,0.5142637991761859,0.4950848331092887,0.1938034073964943,10.0,COBOT,1,27.0,1.0,6.0,3.0,2.0,2.0,30,14,10,17,10,37.0,1,2.0
10-06-07_09-30-59_cobot.txt,10,0.2650939155533069,0.1777528511422675,0.0702771266342716,2108.243521901516,209.0097970104613,418.23333333333335,10673,1.5891914103362013,0.0582700839520225,0.2643994654221007,0.2630585971112915,0.105389397441072,0.1049464902377109,0.4652542819010871,0.4746376905169748,0.1862955295575663,10.0,COBOT,1,27.0,1.0,6.0,3.0,2.0,2.0,30,14,10,17,10,37.0,1,2.0
10-06-07_09-30-59_cobot.txt,10,0.3084644443314854,0.21292485524687,0.095153485199572,2854.509402501961,205.8475212432626,421.2,10491,1.6333534891780592,0.0683325554510625,0.3264226456281862,0.3139256333575207,0.1218658628570607,0.1210624952248282,0.5770706176238398,0.5493482152129827,0.2123984241221745,10.0,COBOT,1,27.0,1.0,6.0,3.0,2.0,2.0,30,14,10,17,10,37.0,1,2.0
10-06-07_10-06-40_cobot.txt,10,0.2923075669552871,0.2201712022317096,0.0854465619180502,2563.3114109795897,219.64980264500664,406.3333333333333,12004,1.3819980964915983,0.0700706455182013,0.3076464617197262,0.3119145977561989,0.1566194830348813,0.1161080576288668,0.5190734995820177,0.5202526610315936,0.2534977258308681,10.0,COBOT,6,33.0,2.0,9.0,3.0,3.0,3.0,41,14,10,17,10,37.0,1,2.0
10-06-07_10-06-40_cobot.txt,10,0.3943211431036575,0.2835394006943336,0.1554943470434766,4664.674916957256,212.02630204937344,413.0333333333333,11506,1.4920684113161649,0.0920176104180273,0.4017119580327182,0.4104999604917152,0.1849211681974074,0.1567060397609221,0.7010379044721405,0.7080640164704562,0.3089137257623065,10.0,COBOT,6,33.0,2.0,9.0,3.0,3.0,3.0,41,14,10,17,10,37.0,1,2.0
10-06-07_10-06-40_cobot.txt,10,0.3015357011488673,0.2162390147592063,0.0909268099610043,2727.7133720201705,214.86451395574932,410.1666666666667,11686,1.4439032284333229,0.0708270683948361,0.2997921538484132,0.3107516195597117,0.1451187507967958,0.1244013645673383,0.5380419775067943,0.5345011657964742,0.2418362609209375,10.0,COBOT,6,33.0,2.0,9.0,3.0,3.0,3.0,41,14,10,17,10,37.0,1,2.0
10-06-07_10-06-40_cobot.txt,10,0.3995965057865953,0.2826750936461527,0.1596826901931962,4790.321023105695,208.3481007279608,417.23333333333335,10626,1.5650205279334022,0.0937466553538911,0.4261864456804077,0.4112621065990992,0.1660766950757632,0.1692273274982236,0.7383873474203629,0.7145425625277765,0.2857166430788372,10.0,COBOT,6,33.0,2.0,9.0,3.0,3.0,3.0,41,14,10,17,10,37.0,1,2.0
10-06-07_10-06-40_cobot.txt,10,0.3597973931743253,0.2511334494509764,0.1294584794176873,3883.624924051202,207.4691965008195,419.23333333333335,10358,1.628275960223248,0.0885407039650028,0.3933351951037692,0.365477554590202,0.1423215563520762,0.1584568080492274,0.6768657191802657,0.6430092192275842,0.2477768292184335,10.0,COBOT,6,33.0,2.0,9.0,3.0,3.0,3.0,41,14,10,17,10,37.0,1,2.0
10-06-07_10-06-40_cobot.txt,10,0.3278207699602873,0.2249701770828336,0.1074700395520073,3223.9937165206693,221.26300936644145,410.7,12160,1.619171332610966,0.0755413280982604,0.3411689022207585,0.3094165778027504,0.146855425739293,0.134625669276036,0.6127613792873478,0.5598487042366219,0.2520642306795714,10.0,COBOT,6,33.0,2.0,9.0,3.0,3.0,3.0,41,14,10,17,10,37.0,1,2.0
10-06-07_10-06-40_cobot.txt,10,0.3045656857364805,0.2133759096258359,0.0927633490397672,2782.8077078439787,223.86914845943892,409.6666666666667,12194,1.6162637417143104,0.071341680304586,0.3234021184935159,0.2942790866638101,0.1411563902351827,0.1259382383323319,0.5566935008042658,0.5237055926732351,0.2377355025836844,10.0,COBOT,6,33.0,2.0,9.0,3.0,3.0,3.0,41,14,10,17,10,37.0,1,2.0
10-06-07_10-47-25_cobot.txt,10,0.1422995777047382,0.1184869932795427,0.0202498448097738,607.4750944484049,250.9144920151305,389.9,13116,1.224545799726127,0.0252219557945965,0.1133552159686337,0.1588813264665521,0.095817067160396,0.0408720028977905,0.1908732861732507,0.2505359695287107,0.1558970509619583,10.0,COBOT,11,36.0,2.0,10.0,3.0,3.0,3.0,43,14,10,17,10,37.0,1,2.0
10-06-07_10-47-25_cobot.txt,10,0.3016431980801832,0.2074418702755479,0.0909916520031074,2729.658568441219,219.29552495492308,409.1333333333333,12510,1.4701959334924115,0.0597914802996518,0.2588495428365114,0.295295329790956,0.1464725604035877,0.1103020228510293,0.4913527151259508,0.5296345451474418,0.2486241124371687,10.0,COBOT,11,36.0,2.0,10.0,3.0,3.0,3.0,43,14,10,17,10,37.0,1,2.0
10-06-07_10-47-25_cobot.txt,10,0.3782883329201654,0.2604739761688502,0.1431068330512863,4293.061884705538,210.14158952017092,415.9,11261,1.5220893368330908,0.085147170654927,0.390636892192728,0.3726526036127953,0.1622648027267009,0.1517768009573995,0.6944109003442744,0.6619137013913167,0.2804034179664432,10.0,COBOT,11,36.0,2.0,10.0,3.0,3.0,3.0,43,14,10,17,10,37.0,1,2.0
10-06-07_10-47-25_cobot.txt,10,0.3554756522503419,0.2533450124687605,0.126367151581192,3790.88818028418,212.353908674862,414.7,11244,1.5275949708045402,0.0801712206903577,0.3855306495167817,0.3574950707967393,0.1568853052788553,0.1367408400558208,0.6738926956644776,0.6206566846420102,0.2670984495330626,10.0,COBOT,11,36.0,2.0,10.0,3.0,3.0,3.0,43,14,10,17,10,37.0,1,2.0
10-06-07_10-47-25_cobot.txt,10,0.4350943529778545,0.309095752676947,0.1893134064400991,5679.212879796534,206.54612623880928,419.23333333333335,10362,1.6108420500964424,0.1073673611280541,0.4882745669901667,0.4488325557920358,0.1772601576244917,0.1847286036540215,0.8235294144273866,0.7748391336564892,0.3068066613535684,10.0,COBOT,11,36.0,2.0,10.0,3.0,3.0,3.0,43,14,10,17,10,37.0,1,2.0
10-06-07_10-47-25_cobot.txt,10,0.4047365850450128,0.2828115737158101,0.1638171638460271,4914.351098216967,209.966412151381,417.9,10821,1.624598956525395,0.0986753161756575,0.4453418945561577,0.3987036291452623,0.1676381668204127,0.171496229901253,0.7900688022506299,0.7022589129404655,0.2876721368712092,10.0,COBOT,11,36.0,2.0,10.0,3.0,3.0,3.0,43,14,10,17,10,37.0,1,2.0
10-06-07_10-47-25_cobot.txt,10,0.3136666735450309,0.2132824663402142,0.0983900617615303,2951.603462784149,219.77933375855,410.3666666666667,12207,1.576759482252917,0.0659000459460469,0.3033394427035369,0.2962284666917902,0.1407182156144039,0.1217098014510598,0.5660828013241741,0.5392667434183375,0.2413834067654613,10.0,COBOT,11,36.0,2.0,10.0,3.0,3.0,3.0,43,14,10,17,10,37.0,1,2.0
10-06-07_09-52-31_cobot.txt,10,0.1524659513705406,0.1286985229637143,0.0232466412153645,697.3759898197217,241.95816369102587,401.7,12520,1.3026916734257283,0.0270434923888558,0.1095175921710975,0.1853983733871813,0.0988721362150308,0.0440944866945155,0.1820655071543708,0.2945609252043086,0.1593581877083333,10.0,COBOT,4,31.0,2.0,9.0,3.0,3.0,2.0,40,14,10,17,10,37.0,1,2.0
10-06-07_09-52-31_cobot.txt,10,0.2918511236525525,0.2134290589616967,0.0851799177078477,2555.3123513177247,212.8488605512884,413.7,10927,1.4959261348183734,0.0654287379286902,0.2979074466183347,0.3154870591585424,0.1330066148454251,0.1137300326835826,0.5162194273702334,0.5368603017355558,0.2234736027593749,10.0,COBOT,4,31.0,2.0,9.0,3.0,3.0,2.0,40,14,10,17,10,37.0,1,2.0
10-06-07_09-52-31_cobot.txt,10,0.3363182048447322,0.2360175076998225,0.1131137053668288,3393.2980472994977,214.4121302662981,414.8,10976,1.5899312308533595,0.0746868317928967,0.3538568243151215,0.3376047978663281,0.1464296080145534,0.1362792186989815,0.6205481006527656,0.5865386667137429,0.2521353021256176,10.0,COBOT,4,31.0,2.0,9.0,3.0,3.0,2.0,40,14,10,17,10,37.0,1,2.0
10-06-07_09-52-31_cobot.txt,10,0.3870769636356014,0.2728252155604516,0.1498335702296976,4494.8572733207,213.1116352072669,416.5,10830,1.6358681466106304,0.0895108543380311,0.4180098552719539,0.3919960781463982,0.1637831726001788,0.1565007261873536,0.7136121921992805,0.6831479343769925,0.2838371940426291,10.0,COBOT,4,31.0,2.0,9.0,3.0,3.0,2.0,40,14,10,17,10,37.0,1,2.0
10-06-07_09-52-31_cobot.txt,10,0.3696917534032519,0.2524151832695129,0.1366765484193181,4100.159776031124,220.1567206460805,411.76666666666665,11815,1.629031533950179,0.0824098635807845,0.3936227603532474,0.3468464696219598,0.1619755188458362,0.1473740797780193,0.7217269507949969,0.6212878720048343,0.2798410003301929,10.0,COBOT,4,31.0,2.0,9.0,3.0,3.0,2.0,40,14,10,17,10,37.0,1,2.0
10-06-07_09-52-31_cobot.txt,10,0.4162424514545417,0.3031527979072181,0.1732635538446813,5197.733351786595,214.53127745833703,415.8333333333333,10608,1.6576276853052343,0.1029646057812586,0.4674662163642514,0.4358700065402793,0.1806560634821883,0.1746813217591367,0.784004785403157,0.7460795755160075,0.3068950503577587,10.0,COBOT,4,31.0,2.0,9.0,3.0,3.0,2.0,40,14,10,17,10,37.0,1,2.0
10-06-07_09-52-31_cobot.txt,10,0.4057027377460032,0.290531732614085,0.1646001980878718,4937.841342438067,222.68382066002263,410.1,11756,1.631163962935914,0.0963771980993458,0.4540030108318498,0.4012141497467146,0.1862726802073401,0.1697206443478894,0.7795376399441111,0.6942290417012716,0.313187990313875,10.0,COBOT,4,31.0,2.0,9.0,3.0,3.0,2.0,40,14,10,17,10,37.0,1,2.0
10-06-07_09-52-31_cobot.txt,10,0.3117803685316133,0.2164126588634044,0.0972102385429933,2916.2099460512586,226.38472295688095,407.5,12062,1.6101459746658275,0.0724683697218311,0.3240925478544886,0.3010815447579471,0.1456126376072133,0.1301937623589992,0.5609620077160523,0.5315143885929314,0.248781831950992,10.0,COBOT,4,31.0,2.0,9.0,3.0,3.0,2.0,40,14,10,17,10,37.0,1,2.0
10-06-07_10-13-16_cobot.txt,10,0.2479924101200059,0.193476752266608,0.0615022855533143,1845.0070643138763,233.71789654868647,399.5333333333333,13212,1.2307748034579191,0.0500458501868341,0.2098157046416559,0.274383250651406,0.1571663341600132,0.0851052547029613,0.3545331099222924,0.4489226265251116,0.2511942080931479,10.0,COBOT,7,36.0,2.0,8.0,3.0,3.0,3.0,42,14,10,17,10,37.0,1,2.0
10-06-07_10-13-16_cobot.txt,10,0.3090101583714425,0.2309439836800328,0.0954904609921103,2864.61833930232,227.73166606462337,400.4666666666666,13092,1.3016586053155503,0.0644364938838543,0.2918711579573295,0.314615666793311,0.1806254987270279,0.110895515093026,0.5131002983915609,0.5309025762501147,0.2922049846124783,10.0,COBOT,7,36.0,2.0,8.0,3.0,3.0,3.0,42,14,10,17,10,37.0,1,2.0
10-06-07_10-13-16_cobot.txt,10,0.4664680137698788,0.3216026186264123,0.2175996611924556,6527.772236112476,210.5607123768191,415.56666666666666,11465,1.5342663745124654,0.1014504769391819,0.4692645206957532,0.4603650972652037,0.2080632122286757,0.1842497135459599,0.85235657628704,0.8086861401538982,0.3581850837068784,10.0,COBOT,7,36.0,2.0,8.0,3.0,3.0,3.0,42,14,10,17,10,37.0,1,2.0
10-06-07_10-13-16_cobot.txt,10,0.2928601425553631,0.2088025410256942,0.0857699220949507,2573.011892926427,220.696102125948,409.0333333333333,11581,1.5413933365882388,0.0565018654438021,0.2902845310121912,0.296479942773873,0.1367564549037717,0.1021811663065483,0.5151364508833588,0.5151883177846115,0.2325483947061506,10.0,COBOT,7,36.0,2.0,8.0,3.0,3.0,3.0,42,14,10,17,10,37.0,1,2.0
10-06-07_10-13-16_cobot.txt,10,0.3390178707736281,0.2307595265355054,0.1149369479354822,3447.993501116532,215.35375387533932,413.0333333333333,11348,1.5891302859789511,0.0721449433457615,0.3338807990048559,0.3348030772550508,0.1447646448986954,0.1373538189605313,0.6064010441635949,0.5985382131008534,0.2520393877888505,10.0,COBOT,7,36.0,2.0,8.0,3.0,3.0,3.0,42,14,10,17,10,37.0,1,2.0
10-06-07_10-13-16_cobot.txt,10,0.3687693763565046,0.2670152806319968,0.1359953861179026,4079.72558815096,222.23585169135112,405.9666666666666,12342,1.4827158461770984,0.0824878785793016,0.3766443254871355,0.3726347519589768,0.186739355839632,0.1413482376392786,0.6636044200720431,0.6460589244117382,0.3069426176903811,10.0,COBOT,7,36.0,2.0,8.0,3.0,3.0,3.0,42,14,10,17,10,37.0,1,2.0
10-06-07_10-13-16_cobot.txt,10,0.3984108689291601,0.2836900663349928,0.158736511697945,4761.936614426652,218.80022476930768,411.1666666666667,11923,1.5797484813080205,0.0880578425495136,0.4034761775515713,0.4044150070499437,0.1859225849208518,0.1539718046924173,0.7055452683939847,0.7072656757095145,0.3131603951948028,10.0,COBOT,7,36.0,2.0,8.0,3.0,3.0,3.0,42,14,10,17,10,37.0,1,2.0
10-06-07_10-59-23_cobot.txt,10,0.3570133093894976,0.2508948554944614,0.1274627518396357,3823.7550924372335,215.5107630972485,411.6333333333333,11454,1.4562298097679152,0.0782688482669722,0.3651339087874465,0.3556750106502291,0.1665487657912747,0.1379604566909813,0.6440293663733986,0.6244792220702714,0.2834662900260353,10.0,COBOT,13,39.0,2.0,11.0,3.0,4.0,3.0,46,14,10,17,10,37.0,1,2.0
10-06-07_10-59-23_cobot.txt,10,0.2650083421910159,0.1911762754482189,0.0702317624895802,2106.882642924917,231.0800830997235,400.3,12595,1.4330142120515508,0.0513628810230289,0.2536865840422437,0.2569283722202819,0.1409980724250756,0.0930043265861624,0.4549258570679925,0.4512760048444958,0.2356109128763171,10.0,COBOT,13,39.0,2.0,11.0,3.0,4.0,3.0,46,14,10,17,10,37.0,1,2.0
10-06-07_10-59-23_cobot.txt,10,0.3608531555987629,0.2542255516779949,0.1302193405502699,3906.4499971675496,214.9180917476377,412.73333333333335,11447,1.4951391880583036,0.0763833420997503,0.3682155443802967,0.3613231790036867,0.1636802929829173,0.1395213639134062,0.6677812917570486,0.6278925500432565,0.2797153296296747,10.0,COBOT,13,39.0,2.0,11.0,3.0,4.0,3.0,46,14,10,17,10,37.0,1,2.0
10-06-07_10-59-23_cobot.txt,10,0.3521376115615741,0.2531608045155633,0.1240050309773225,3720.0269242887,216.5024945829188,409.3333333333333,12502,1.3922947732601374,0.0719128394844301,0.3239830957642911,0.3615971469624947,0.1797075789007102,0.1310901540854583,0.5930422879436834,0.6256945039095257,0.293442850835959,10.0,COBOT,13,39.0,2.0,11.0,3.0,4.0,3.0,46,14,10,17,10,37.0,1,2.0
10-06-07_10-59-23_cobot.txt,10,0.3769200183043253,0.2675348432279631,0.1420734359797322,4262.061005955988,212.23435695547735,413.6333333333333,11809,1.4571332996530186,0.0807332656956581,0.3623026493155447,0.3877262986615732,0.1802799630588921,0.1440059296762617,0.6529178919122727,0.6731263209778772,0.3001351502291438,10.0,COBOT,13,39.0,2.0,11.0,3.0,4.0,3.0,46,14,10,17,10,37.0,1,2.0
10-06-07_10-59-23_cobot.txt,10,0.4546216644212884,0.3255964020276152,0.2066877473527609,6200.425732835475,213.24482740467903,412.0333333333333,11798,1.4775471003673364,0.1063923881743726,0.4725397030824606,0.4568833842655342,0.215408370946211,0.1850481436692931,0.8324213547569342,0.7973069658734302,0.3570596738124858,10.0,COBOT,13,39.0,2.0,11.0,3.0,4.0,3.0,46,14,10,17,10,37.0,1,2.0
10-06-07_10-53-11_cobot.txt,10,0.2009535829467605,0.1582071392977691,0.0403836886220946,1211.470274974217,235.74595803684804,399.5,13338,1.2303413526589289,0.0331183088832727,0.1360846044831408,0.218301464246211,0.1284008543154593,0.0627129615632887,0.2642236502247628,0.3627595856961791,0.2071278312114929,10.0,COBOT,12,38.0,2.0,10.0,3.0,4.0,3.0,46,14,10,17,10,37.0,1,2.0
10-06-07_10-53-11_cobot.txt,10,0.36360737646247,0.2563699102734591,0.1322147313756328,3966.3097265376105,214.61307637284617,410.06666666666666,12261,1.4329731326610613,0.0776158772350376,0.3490112956485494,0.3659674905797998,0.1770431604941379,0.1397635494661663,0.63458301210137,0.6399691567808466,0.2932436071497378,10.0,COBOT,12,38.0,2.0,10.0,3.0,4.0,3.0,46,14,10,17,10,37.0,1,2.0
10-06-07_10-53-11_cobot.txt,10,0.3816984172543083,0.2758146040146297,0.1456985383523891,4370.810452033322,218.78602349044905,408.9666666666666,11949,1.4911196085418543,0.0847605135877611,0.3957182985925317,0.3845521917559392,0.1883663546174995,0.1491612690052029,0.6842390435410957,0.6664913636882569,0.3120971542939695,10.0,COBOT,12,38.0,2.0,10.0,3.0,4.0,3.0,46,14,10,17,10,37.0,1,2.0
10-06-07_10-53-11_cobot.txt,10,0.2852501821749733,0.2086988004346696,0.0813703787768146,2441.0299929256635,247.2359755443042,390.6,14865,1.348045556259187,0.0574950035073382,0.2772948654887289,0.2575169651581999,0.1767669815536746,0.1016219695503567,0.492570887199519,0.4593924548300283,0.2860334126245004,10.0,COBOT,12,38.0,2.0,10.0,3.0,4.0,3.0,46,14,10,17,10,37.0,1,2.0
10-06-07_10-53-11_cobot.txt,10,0.4825964942851207,0.339341038951636,0.2329071398676175,6986.981288888657,224.54563411475863,408.6,12808,1.6392973792424983,0.1130541522440499,0.5069886261993654,0.4634580877456133,0.2323629360083579,0.2006496683708528,0.8962004192971852,0.8213726219212513,0.3834686389845604,10.0,COBOT,12,38.0,2.0,10.0,3.0,4.0,3.0,46,14,10,17,10,37.0,1,2.0
10-06-07_10-53-11_cobot.txt,10,0.3766915478432776,0.2665385434153107,0.1419012522583062,4256.895666496928,230.36038544614092,406.4,12572,1.6043651878203862,0.0865944799734319,0.3989199999632528,0.3606398601976758,0.1862431680169594,0.1490325039377437,0.6965794340746049,0.6414230613714826,0.3125921322612021,10.0,COBOT,12,38.0,2.0,10.0,3.0,4.0,3.0,46,14,10,17,10,37.0,1,2.0
10-06-07_10-53-11_cobot.txt,10,0.3004036806733478,0.2015390218695782,0.0902453795414127,2707.271140862842,225.65393687225165,408.06666666666666,12220,1.6187417872427967,0.0623494314458598,0.2957194394619568,0.2772898791566305,0.1364410853975317,0.1157804724507736,0.5508624544583681,0.5083890062654636,0.2352693076059514,10.0,COBOT,12,38.0,2.0,10.0,3.0,4.0,3.0,46,14,10,17,10,37.0,1,2.0
10-06-07_10-35-06_cobot.txt,10,0.2079987987534327,0.1635976379113514,0.0432649424476192,1297.9050084861308,294.46115167484925,384.7,20507,1.0214054792530234,0.0306012870974358,0.138234107999262,0.1494966032525576,0.1913953608141087,0.0543194540777493,0.2444816619318122,0.2699174617108773,0.2924767610866183,10.0,COBOT,9,33.0,2.0,8.0,3.0,4.0,3.0,44,14,10,17,10,37.0,1,2.0
10-06-07_10-35-06_cobot.txt,10,0.2346242838191312,0.1795187332360771,0.0550503895706259,1651.4566367292082,275.6552890836912,382.1,18348,1.1369683626226188,0.0380790242396438,0.1854955655306865,0.186948388566507,0.1883370358533761,0.0711462743982524,0.34271873957903,0.3318632598725625,0.2963562320666593,10.0,COBOT,9,33.0,2.0,8.0,3.0,4.0,3.0,44,14,10,17,10,37.0,1,2.0
10-06-07_10-35-06_cobot.txt,10,0.2678051890703611,0.2024401322288483,0.0717220100266794,2151.5885787903558,259.52711215406424,379.8666666666667,16675,1.180128808633129,0.0474623534251475,0.2285160345541038,0.2365077020886969,0.1957014472986475,0.0857032937515435,0.4046266297684966,0.4151116186210133,0.3061322310857667,10.0,COBOT,9,33.0,2.0,8.0,3.0,4.0,3.0,44,14,10,17,10,37.0,1,2.0
10-06-07_10-35-06_cobot.txt,10,0.4333338476506322,0.3050944308819788,0.1877844830024681,5633.346705591041,219.6786644096087,407.5,12650,1.4521521415650855,0.0890825389853726,0.4395210551763017,0.4156363808531638,0.219116854236871,0.159828956070831,0.7809899672159681,0.7334569827705831,0.3617125830277256,10.0,COBOT,9,33.0,2.0,8.0,3.0,4.0,3.0,44,14,10,17,10,37.0,1,2.0
10-06-07_10-35-06_cobot.txt,10,0.4375857416410926,0.3077130194082852,0.1914876642097253,5744.438438627551,205.8252096585024,419.6333333333333,10570,1.5644719668057263,0.1042545365946314,0.4563082991933578,0.4540705578000386,0.1807384752182433,0.1857212821202317,0.80516133267861,0.7846301262984865,0.3113879762067359,10.0,COBOT,9,33.0,2.0,8.0,3.0,4.0,3.0,44,14,10,17,10,37.0,1,2.0
10-06-07_10-35-06_cobot.txt,10,0.4237925352648894,0.3003602387758027,0.1796060998162364,5388.003388387276,206.46595951262285,419.1666666666667,10503,1.5647539532005643,0.1022868612982044,0.4592367334835097,0.4377361930476718,0.1756215722033396,0.1831302216958481,0.7961573576832074,0.7539162361100731,0.3032901493466216,10.0,COBOT,9,33.0,2.0,8.0,3.0,4.0,3.0,44,14,10,17,10,37.0,1,2.0
10-06-07_10-35-06_cobot.txt,10,0.4324170820942702,0.2996186532820766,0.1869907659124532,5609.535986607685,209.746642225615,416.8666666666667,10708,1.6089865594042847,0.1028359059753984,0.4694961657221539,0.4261175186605152,0.1780895508369891,0.1827650694108931,0.8164622413869956,0.7545618958250349,0.309780441914258,10.0,COBOT,9,33.0,2.0,8.0,3.0,4.0,3.0,44,14,10,17,10,37.0,1,2.0
10-06-07_10-18-54_cobot.txt,10,0.1776689630564146,0.1421898637869137,0.0315673126772975,946.9878130062488,249.98308807846493,387.8666666666667,14951,1.1165065777700138,0.0316720991380217,0.1327114161523326,0.1821578997791787,0.1332761746383375,0.0539330496698365,0.2313953012257963,0.2969547931081938,0.2093859627337399,10.0,COBOT,8,36.0,2.0,9.0,3.0,3.0,3.0,38,14,10,17,10,37.0,1,2.0
10-06-07_10-18-54_cobot.txt,10,0.2834531505871326,0.2075740393329136,0.0803483668566669,2410.37065733315,229.73202720418575,398.4333333333333,13324,1.370297324098513,0.0624853570555341,0.2710431456810173,0.2806929693621115,0.161004104239619,0.1089534099477741,0.4744677151250924,0.487656791825963,0.2616178490100653,10.0,COBOT,8,36.0,2.0,9.0,3.0,3.0,3.0,38,14,10,17,10,37.0,1,2.0
10-06-07_10-18-54_cobot.txt,10,0.312323221572812,0.2203675436842718,0.0975490463684987,2926.3738420085947,216.8983062347548,408.23333333333335,12588,1.4273817563982705,0.0639838349777863,0.296659237551592,0.3080170415134567,0.1568149951044937,0.1183935566019435,0.5543867838084398,0.5384937288879091,0.2586405372164714,10.0,COBOT,8,36.0,2.0,9.0,3.0,3.0,3.0,38,14,10,17,10,37.0,1,2.0
10-06-07_10-18-54_cobot.txt,10,0.4856784538980416,0.3393178904328238,0.2358914236282464,7076.506817423764,203.1348871111136,421.56666666666666,9866,1.5561045103743674,0.1192571051897784,0.548946078873167,0.4926055935761566,0.1878501945337955,0.2049616547853847,0.947188069839389,0.8575563565865287,0.3309841460996368,10.0,COBOT,8,36.0,2.0,9.0,3.0,3.0,3.0,38,14,10,17,10,37.0,1,2.0
10-06-07_10-18-54_cobot.txt,10,0.3371910387610056,0.236035281790901,0.1137015866736151,3410.933898621781,205.86959108853307,421.1333333333333,10128,1.6118624881972412,0.0842330844868026,0.3681798570735006,0.3449699038011952,0.1325667435235336,0.1456841557584645,0.6350871205972872,0.6030150467953607,0.232120094741257,10.0,COBOT,8,36.0,2.0,9.0,3.0,3.0,3.0,38,14,10,17,10,37.0,1,2.0
10-06-07_10-18-54_cobot.txt,10,0.3695389524063527,0.2543544403913249,0.1365635894652335,4096.77112036754,209.61421201232253,418.56666666666666,10480,1.6449948438168809,0.0891247705380739,0.3939300789954215,0.3701358378472597,0.1475713790446849,0.155585572394828,0.689222734425691,0.6537427233534661,0.2604255307898979,10.0,COBOT,8,36.0,2.0,9.0,3.0,3.0,3.0,38,14,10,17,10,37.0,1,2.0
10-06-07_10-18-54_cobot.txt,10,0.3423215940056461,0.2384211044467289,0.117187979988566,3515.5222116769933,207.2435612050364,420.3,10398,1.650353916470085,0.0818315612798818,0.3659859484483714,0.3517972195878471,0.1359863037369751,0.1424834275299648,0.6397661118131266,0.6146624358813251,0.2378707191324851,10.0,COBOT,8,36.0,2.0,9.0,3.0,3.0,3.0,38,14,10,17,10,37.0,1,2.0
