filename,patient,rmse,mav,var,energy,mnf,mdf,zc,fr,mav_arr_0,mav_arr_1,mav_arr_2,mav_arr_3,std_0,std_1,std_2,std_3,ID,Task,File_number,STAI_Total,Fatigue,Stress,Mental_Demand,Physical_Demand,Frustration,NASA_Total,PSS,NARS_S1,NARS_S2,NARS_S3,Age,Sex,Experience
10-05-30_16-46-02_manual.txt,10,0.3182995175454207,0.2278428416148638,0.1013179601349854,3039.437486089427,205.30513585964437,419.9666666666666,10287,1.6262662471577265,0.0839273548458005,0.3419847692748291,0.3416360548081648,0.1297812659909096,0.146023294635416,0.578462044739252,0.5839192569165882,0.2228069621558922,10.0,MANUAL,5,31.0,2.0,10.0,3.0,2.0,3.0,37,14,10,17,10,37.0,1,2.0
10-05-30_16-46-02_manual.txt,10,0.3965097334408619,0.2870044937878318,0.1572252095536618,4716.5990614003,202.9388281635478,422.1,10207,1.608220854675827,0.1066552141716613,0.4226463681797872,0.4340449806373083,0.1628491406479071,0.1799548192913983,0.7169795075490452,0.7372279334897365,0.2793777835258338,10.0,MANUAL,5,31.0,2.0,10.0,3.0,2.0,3.0,37,14,10,17,10,37.0,1,2.0
10-05-30_16-46-02_manual.txt,10,0.3535071037644318,0.2569011077522403,0.1249714381265209,3749.0181723575024,204.82109932243165,422.56666666666666,10361,1.647987286721303,0.0925482679375674,0.3636889485739315,0.3963076012098011,0.1453648462510336,0.1531263138551976,0.6033805284307115,0.6729957327866414,0.2473728736912604,10.0,MANUAL,5,31.0,2.0,10.0,3.0,2.0,3.0,37,14,10,17,10,37.0,1,2.0
10-05-30_16-46-02_manual.txt,10,0.3471606977994128,0.2501625868014365,0.1205245675821612,3615.616502897256,204.8542139925898,422.1333333333333,10426,1.6620200658155388,0.0891930290312406,0.3550927506456969,0.3863467284192898,0.142272923037955,0.148583003479456,0.5908818243086271,0.6624410494415288,0.2448319374718025,10.0,MANUAL,5,31.0,2.0,10.0,3.0,2.0,3.0,37,14,10,17,10,37.0,1,2.0
10-05-30_16-46-02_manual.txt,10,0.2918330329651243,0.2035559395885854,0.0851693581082269,2554.9955738887,208.156225323246,421.0,10709,1.638820159098969,0.0679239809558509,0.2832728691390566,0.3127125140911441,0.1194041902723181,0.1188136552934457,0.4847277737523661,0.5446009695170652,0.2071365615562402,10.0,MANUAL,5,31.0,2.0,10.0,3.0,2.0,3.0,37,14,10,17,10,37.0,1,2.0
10-05-30_16-46-02_manual.txt,10,0.2555483290077611,0.1720257256678288,0.0653071253628376,1959.148453759768,211.03267108998287,419.3,11295,1.6216934295425702,0.055558281274349,0.2397899412998675,0.2619354077398743,0.1039803170712591,0.1000323117701832,0.4195564450232006,0.4725555293113592,0.182179568115492,10.0,MANUAL,5,31.0,2.0,10.0,3.0,2.0,3.0,37,14,10,17,10,37.0,1,2.0
10-05-30_16-46-02_manual.txt,10,0.2451825415798401,0.1647912999401849,0.0601164825783026,1803.4343608665015,211.5290280639164,418.06666666666666,11278,1.6292256678606905,0.0563945170106317,0.2278906370672005,0.2478361475920309,0.1010891569825878,0.0998062832544514,0.4081535103293685,0.4455522508975446,0.1780989960712711,10.0,MANUAL,5,31.0,2.0,10.0,3.0,2.0,3.0,37,14,10,17,10,37.0,1,2.0
10-05-30_16-31-30_manual.txt,10,0.354499288450524,0.2603154216145632,0.1256739346430826,3770.0923653578343,210.1253474657816,418.4,10418,1.6189492308578082,0.0938019741549648,0.3794674114992984,0.3918861365582145,0.1513972374985212,0.154712678477672,0.6247302389765892,0.6651587349546306,0.2569878689344416,10.0,MANUAL,3,33.0,1.0,9.0,2.0,3.0,1.0,31,14,10,17,10,37.0,1,2.0
10-05-30_16-31-30_manual.txt,10,0.3472098922459324,0.2546595703353327,0.1205587278976953,3616.641278202961,208.280002892021,419.4666666666666,10344,1.6262016411540234,0.0902100314059928,0.3684068531341544,0.3871777341102461,0.1455143209386615,0.1525590868665589,0.6051022053887227,0.6512342060179944,0.2465201604585356,10.0,MANUAL,3,33.0,1.0,9.0,2.0,3.0,1.0,31,14,10,17,10,37.0,1,2.0
10-05-30_16-31-30_manual.txt,10,0.4678651181407786,0.34552612583143,0.2189050656084049,6566.9330631865405,204.89703310685067,422.73333333333335,10185,1.648982919981861,0.1228566360849452,0.4955546117819694,0.5297997867245361,0.193650650099928,0.203583266172198,0.8258603756343313,0.8867625458501096,0.3299599261880311,10.0,MANUAL,3,33.0,1.0,9.0,2.0,3.0,1.0,31,14,10,17,10,37.0,1,2.0
10-05-30_16-31-30_manual.txt,10,0.3856098631102412,0.2689716558816661,0.1486999231920053,4460.848995836968,206.975000962578,420.23333333333335,10628,1.6204526832927175,0.0950966752977249,0.3775551243548435,0.412772658134226,0.1549683134051609,0.1629236254997738,0.6471251223549032,0.722468310313291,0.272335041384175,10.0,MANUAL,3,33.0,1.0,9.0,2.0,3.0,1.0,31,14,10,17,10,37.0,1,2.0
10-05-30_16-31-30_manual.txt,10,0.3072660218786391,0.2072231257517761,0.0944155553863038,2832.3722460337294,210.77590014029803,418.3333333333333,11144,1.6375809569422275,0.0695020628995975,0.2863229587112106,0.3147098441567075,0.1256391379549697,0.1220184821840344,0.5086180234072892,0.5651149905387233,0.2215325046902178,10.0,MANUAL,3,33.0,1.0,9.0,2.0,3.0,1.0,31,14,10,17,10,37.0,1,2.0
10-05-30_16-31-30_manual.txt,10,0.2757013849315929,0.1798901073932836,0.0760137874461132,2280.337609595951,210.93008739592617,419.1666666666667,10997,1.663576490108546,0.0587492241724811,0.250659418704936,0.2748335742492063,0.1076198556056327,0.1060281571155895,0.4550295874718705,0.5031001050212879,0.1958289922713448,10.0,MANUAL,3,33.0,1.0,9.0,2.0,3.0,1.0,31,14,10,17,10,37.0,1,2.0
10-05-30_16-31-30_manual.txt,10,0.2230572788085186,0.1499323302160378,0.0497562081697335,1492.636488883836,215.92100259356644,416.2,11428,1.599741363050132,0.0430516746727606,0.2002280575636761,0.227383172846154,0.0938851203931006,0.0756340005356466,0.3533171835717125,0.4099828512825956,0.1645899910930255,10.0,MANUAL,3,33.0,1.0,9.0,2.0,3.0,1.0,31,14,10,17,10,37.0,1,2.0
10-05-30_16-31-30_manual.txt,10,0.2427474222331395,0.1681109580340871,0.0589282752766766,1767.7893300250237,214.1780715904937,417.1666666666667,10919,1.587086267797278,0.052949637245417,0.2346349749481297,0.2559545174239564,0.1020369032993959,0.0916799730983073,0.397433226173866,0.4503736052680755,0.1794179160065329,10.0,MANUAL,3,33.0,1.0,9.0,2.0,3.0,1.0,31,14,10,17,10,37.0,1,2.0
10-05-30_17-34-28_manual.txt,10,0.2842214637538978,0.1981559501311472,0.0807845332761841,2423.4552137522483,233.2330994351946,401.5333333333333,13016,1.4507572440176493,0.0501481977889015,0.2467520104963544,0.2807575976242052,0.1496874439777319,0.0891850733009804,0.4433221241470411,0.5000529469440782,0.2497032563860037,10.0,MANUAL,12,34.0,2.0,10.0,2.0,4.0,3.0,45,14,10,17,10,37.0,1,2.0
10-05-30_17-34-28_manual.txt,10,0.4379940710061505,0.2810021634387796,0.1918452010765767,5755.164187096225,215.8943803752926,417.0,11830,1.6261919950255623,0.0757791359399932,0.3956658420910756,0.4124449265808368,0.1796297033576145,0.1413908224938725,0.7463315873466919,0.768311388385838,0.3167847988245708,10.0,MANUAL,12,34.0,2.0,10.0,2.0,4.0,3.0,45,14,10,17,10,37.0,1,2.0
10-05-30_17-34-28_manual.txt,10,0.4387135834231583,0.2875598287104791,0.19247602414746,5774.088248399654,217.63098550946225,412.9,11931,1.5527878199759988,0.0827041829340504,0.3955398991808185,0.4192264426931323,0.1914277795188113,0.1532773973524392,0.740686866791163,0.770275979613074,0.3345529089509551,10.0,MANUAL,12,34.0,2.0,10.0,2.0,4.0,3.0,45,14,10,17,10,37.0,1,2.0
10-05-30_16-39-22_manual.txt,10,0.3188518041959198,0.2210911693195385,0.1016698620343943,3049.994191169795,207.39492740364307,419.9333333333333,10593,1.6226589974600232,0.077519759033265,0.3229355583578813,0.3337257777251242,0.1285424335368612,0.1323039145241543,0.5663867736515094,0.5808676107769207,0.2256945284605206,10.0,MANUAL,4,33.0,2.0,10.0,2.0,4.0,1.0,41,14,10,17,10,37.0,1,2.0
10-05-30_16-39-22_manual.txt,10,0.4152562414773199,0.3049894169964445,0.1724434942023435,5173.132382576105,204.5067842939717,420.56666666666666,10114,1.6147907989393058,0.11046751694585,0.4543626598337494,0.458340330102354,0.1718945902724396,0.1816647694654011,0.7533237445322044,0.7759506810300468,0.2940233621149912,10.0,MANUAL,4,33.0,2.0,10.0,2.0,4.0,1.0,41,14,10,17,10,37.0,1,2.0
10-05-30_16-39-22_manual.txt,10,0.3345754879615795,0.2349697679490006,0.1119444886276832,3358.2227143418704,206.0248667533879,421.6666666666667,10595,1.6585640691083825,0.0839337784364994,0.3399483018495694,0.358443634096606,0.1349903580375296,0.1437716792536428,0.5822835477830123,0.6253282146379325,0.2349151258665697,10.0,MANUAL,4,33.0,2.0,10.0,2.0,4.0,1.0,41,14,10,17,10,37.0,1,2.0
10-05-30_16-39-22_manual.txt,10,0.3488842732854308,0.2449368446606754,0.1217242936223572,3651.607084377096,206.54094104169585,420.9333333333333,10725,1.6508030426938904,0.0870484074333654,0.3501786908459657,0.3715380348308707,0.1417240729879814,0.1501646053328457,0.6011958858104307,0.6473402637981945,0.2460215664145113,10.0,MANUAL,4,33.0,2.0,10.0,2.0,4.0,1.0,41,14,10,17,10,37.0,1,2.0
10-05-30_16-39-22_manual.txt,10,0.3481523188199067,0.2411462901591604,0.1212140775689303,3636.30111299034,207.13290064822235,420.6,10846,1.6209365278322054,0.0842864367659484,0.3498397222753754,0.3614029010077853,0.1413746580208806,0.1485311572173685,0.6104815270154539,0.6361429169271893,0.2474406560174131,10.0,MANUAL,4,33.0,2.0,10.0,2.0,4.0,1.0,41,14,10,17,10,37.0,1,2.0
10-05-30_16-39-22_manual.txt,10,0.2093331972106144,0.1418253895135176,0.0438218481826907,1314.61162363254,218.36634570225408,412.26666666666665,11898,1.567900774144135,0.0440035623059623,0.1970726966152576,0.2093875124639765,0.0940636924336997,0.0803040919126965,0.3548995236188429,0.3764368618863693,0.1619784748028909,10.0,MANUAL,4,33.0,2.0,10.0,2.0,4.0,1.0,41,14,10,17,10,37.0,1,2.0
10-05-30_16-39-22_manual.txt,10,0.1799768488110122,0.1219761801356196,0.0323927458661374,971.749983238258,224.71012410609268,406.56666666666666,12768,1.532786227886226,0.0359818642834342,0.1629443772694945,0.1750667404079193,0.086278771244165,0.0662568910874485,0.2923890393120185,0.3192087001956841,0.1456493537926129,10.0,MANUAL,4,33.0,2.0,10.0,2.0,4.0,1.0,41,14,10,17,10,37.0,1,2.0
10-05-30_16-15-24_manual.txt,10,0.2368468698106257,0.1586955858895055,0.0560983096827475,1682.8931921727444,209.0529928023722,417.9666666666666,11210,1.5911308516879046,0.0531390359435731,0.2322058163186023,0.2355336115605754,0.0961671005733944,0.0949202833451078,0.4101275654184004,0.4257057987709202,0.168603074664939,10.0,MANUAL,1,29.0,1.0,8.0,2.0,2.0,2.0,34,14,10,17,10,37.0,1,2.0
10-05-30_16-15-24_manual.txt,10,0.3817410533132417,0.2866880328227467,0.1457310894876861,4371.786953541097,203.4253919166154,422.0,10074,1.5748300317328854,0.1053927195031763,0.4198293824836839,0.4344513920559836,0.1624838742060801,0.1724036770842446,0.6981260891549771,0.7245720533979445,0.2715685660894927,10.0,MANUAL,1,29.0,1.0,8.0,2.0,2.0,2.0,34,14,10,17,10,37.0,1,2.0
10-05-30_16-15-24_manual.txt,10,0.3928429639863974,0.2937159763670937,0.1543307387115749,4629.767830608537,202.3182873442749,422.6666666666667,10040,1.604609669651508,0.1112958022437395,0.4444263346267363,0.4373614655222376,0.1649557638069502,0.1839753476333969,0.7305791120990075,0.7288960592179633,0.2776974323408085,10.0,MANUAL,1,29.0,1.0,8.0,2.0,2.0,2.0,34,14,10,17,10,37.0,1,2.0
10-05-30_16-15-24_manual.txt,10,0.3415561868240689,0.2443515109762911,0.1166645175750508,3499.8188627339487,202.4083012404528,422.73333333333335,10162,1.6271673210486126,0.091543466948842,0.3634010400003735,0.3704818676540924,0.1360082578618684,0.1560328505328827,0.619420489223098,0.6315098562580151,0.2357711424445744,10.0,MANUAL,1,29.0,1.0,8.0,2.0,2.0,2.0,34,14,10,17,10,37.0,1,2.0
10-05-30_16-15-24_manual.txt,10,0.3072203193977491,0.2246209577808259,0.0943874708998849,2831.529739525649,205.59531926631564,421.23333333333335,10162,1.6797085268129628,0.0814777216627146,0.3259283407016462,0.3399934367680222,0.127168715678266,0.1367832101049043,0.5404051647089403,0.5783216457354703,0.2171488032768624,10.0,MANUAL,1,29.0,1.0,8.0,2.0,2.0,2.0,34,14,10,17,10,37.0,1,2.0
10-05-30_16-15-24_manual.txt,10,0.2886739870488061,0.2055258103419391,0.0833354486469425,2499.980123959628,208.7387948452904,421.3666666666667,10475,1.6856291009822937,0.0716532295006441,0.2941944200295908,0.3133645896295618,0.117377054812516,0.1213644412209445,0.4956414493963227,0.5410920052792216,0.2028891243088239,10.0,MANUAL,1,29.0,1.0,8.0,2.0,2.0,2.0,34,14,10,17,10,37.0,1,2.0
10-05-30_16-15-24_manual.txt,10,0.3080462415029318,0.2189833638285493,0.094895650092419,2846.7746071224788,206.6921486379663,422.3333333333333,10507,1.6998822184206426,0.0775550399231236,0.3215950614916852,0.3313388853671246,0.1248561075406328,0.1330777663028268,0.5440934101101759,0.5738372559345362,0.2164931344811715,10.0,MANUAL,1,29.0,1.0,8.0,2.0,2.0,2.0,34,14,10,17,10,37.0,1,2.0
10-05-30_16-15-24_manual.txt,10,0.2579516036126539,0.177582452792601,0.0665412478479346,1996.170894190192,211.97786066018895,418.4333333333333,11139,1.6852510451965323,0.0612102573989333,0.2535096436437608,0.267524608096275,0.1058786072557351,0.1062269461036578,0.4423003352507511,0.4719968451002616,0.1841212003190349,10.0,MANUAL,1,29.0,1.0,8.0,2.0,2.0,2.0,34,14,10,17,10,37.0,1,2.0
10-05-30_17-32-24_manual.txt,10,0.3521669942721529,0.2455793565366952,0.1240257260455507,3720.647755640477,205.9475572365964,420.6,10232,1.6240329639393778,0.0912938562809367,0.3653460988737338,0.3702141106845886,0.1388845461980184,0.1558521062654269,0.622390482549477,0.6463725600049892,0.2432742025879479,10.0,MANUAL,11,34.0,2.0,10.0,2.0,4.0,2.0,43,14,10,17,10,37.0,1,2.0
10-05-30_17-32-24_manual.txt,10,0.3650068383616762,0.2536952821573227,0.1332344331985601,3996.899761523606,204.876297098562,421.9333333333333,10199,1.6467035832766697,0.0881171066577093,0.3792030322230766,0.3803461352285183,0.1447228510141846,0.1518914446329158,0.6555146889117992,0.6630788802264121,0.2560336483420283,10.0,MANUAL,11,34.0,2.0,10.0,2.0,4.0,2.0,43,14,10,17,10,37.0,1,2.0
10-05-30_17-32-24_manual.txt,10,0.283090266746436,0.1827515548533549,0.0801427705522534,2404.2029737970497,208.2435472918491,420.9,11218,1.6588144873957629,0.0630918508431122,0.2582066318433216,0.2773767696106938,0.1089625508777877,0.1156694072161444,0.4675512255415014,0.5143524057890392,0.1986140355768954,10.0,MANUAL,11,34.0,2.0,10.0,2.0,4.0,2.0,43,14,10,17,10,37.0,1,2.0
10-05-30_17-06-11_manual.txt,10,0.3887606178768093,0.2563000788873311,0.1511398560071588,4534.044540358757,200.29869757205552,423.5,10623,1.599088587284372,0.0947261832427619,0.38683064447546,0.3829939938969456,0.1440131772633526,0.1699039486062744,0.7016848781491379,0.6945759219415696,0.2585858654937294,10.0,MANUAL,8,35.0,2.0,11.0,2.0,4.0,2.0,36,14,10,17,10,37.0,1,2.0
10-05-30_17-06-11_manual.txt,10,0.4749423694230226,0.3485481977084488,0.2255777735322726,6767.107628194648,199.2961770724125,424.26666666666665,9964,1.5529540939346778,0.131987095905601,0.5484719012493606,0.5144233611549044,0.1927769429406058,0.2219680218751182,0.915933313509912,0.8664133380917964,0.3259250093895534,10.0,MANUAL,8,35.0,2.0,11.0,2.0,4.0,2.0,36,14,10,17,10,37.0,1,2.0
10-05-30_17-06-11_manual.txt,10,0.3210664520778958,0.2272003609079518,0.1030871028866506,3092.5099994966326,204.062652080484,422.6666666666667,10395,1.6625846312486816,0.0833387845271133,0.3273084850758343,0.3458721784146432,0.1280256830007919,0.1442567837471443,0.5571147312569996,0.5985189477397778,0.2225613680194238,10.0,MANUAL,8,35.0,2.0,11.0,2.0,4.0,2.0,36,14,10,17,10,37.0,1,2.0
10-05-30_17-06-11_manual.txt,10,0.2310913116072017,0.159890295901283,0.0534049744661523,1602.0958290101044,209.4059793171845,419.9333333333333,10864,1.6119780728276254,0.054354260883625,0.2317654385531494,0.2405879835918944,0.0955957632276992,0.0939074243581761,0.3978992470742053,0.4252998892032261,0.1671355200750924,10.0,MANUAL,8,35.0,2.0,11.0,2.0,4.0,2.0,36,14,10,17,10,37.0,1,2.0
10-05-30_17-06-11_manual.txt,10,0.2368928924032634,0.1590471934137108,0.0561201131416221,1683.547274135524,206.6519699497128,420.6666666666667,10827,1.64483403800954,0.0527083589641271,0.2294608899126287,0.2411320766658496,0.0929825344848986,0.0943434465734213,0.410284567469126,0.4312705262260796,0.1658956885707317,10.0,MANUAL,8,35.0,2.0,11.0,2.0,4.0,2.0,36,14,10,17,10,37.0,1,2.0
10-05-30_17-06-11_manual.txt,10,0.1742570140052869,0.1164114718263604,0.0303665191473436,910.9652079011628,213.8977268953836,415.9666666666666,11460,1.596192495356228,0.035339662068696,0.1581328055547887,0.1748547072825826,0.0724366554814171,0.0642102973835078,0.2785413568624741,0.3193287734747399,0.1278816653203382,10.0,MANUAL,8,35.0,2.0,11.0,2.0,4.0,2.0,36,14,10,17,10,37.0,1,2.0
10-05-30_17-50-09_manual.txt,10,0.2779783225808563,0.1881209402504786,0.0772745236423213,2318.158434745999,212.94456062181203,416.1,11031,1.5782728274607305,0.0612539369004144,0.2764337252613917,0.2785760798145862,0.1134823366956288,0.1104060661248363,0.4896060936310424,0.4983935506252652,0.1983595171809483,10.0,MANUAL,15,35.0,3.0,10.0,2.0,4.0,3.0,44,14,10,17,10,37.0,1,2.0
10-05-30_17-50-09_manual.txt,10,0.357318255969117,0.2522897089361128,0.127680592068547,3830.290081464343,207.21330053394288,419.3,10392,1.5910712324606893,0.088119745745163,0.3739910255691915,0.3795401361560444,0.1453598030415535,0.1481967518254502,0.6337186619581296,0.6588247042948423,0.2518404754008544,10.0,MANUAL,15,35.0,3.0,10.0,2.0,4.0,3.0,44,14,10,17,10,37.0,1,2.0
10-05-30_17-50-09_manual.txt,10,0.2163780372916763,0.1501159013805779,0.0468210157227221,1404.5836506659423,221.153026665355,410.26666666666665,11977,1.5458081480374202,0.0413580142952449,0.2040389756540464,0.2181701577598332,0.1010647579777675,0.0742028504600915,0.367005949292904,0.3879403922007188,0.1695392222596369,10.0,MANUAL,15,35.0,3.0,10.0,2.0,4.0,3.0,44,14,10,17,10,37.0,1,2.0
10-05-30_17-50-09_manual.txt,10,0.178046536364407,0.1175067264769686,0.0317016258322231,951.0170733408632,234.5280784455266,400.4,13190,1.425293726108478,0.0261886331101488,0.1412446582598457,0.163660935989275,0.0915045449565033,0.0504680101548068,0.2817283268408715,0.30057523437452,0.1570398358931885,10.0,MANUAL,15,35.0,3.0,10.0,2.0,4.0,3.0,44,14,10,17,10,37.0,1,2.0
10-05-30_17-50-09_manual.txt,10,0.3707931034139082,0.2353936909147475,0.1374921086096042,4124.625766179517,211.57493266155416,418.1333333333333,11028,1.6468314181245358,0.0748258775746912,0.3356511585380535,0.3561973173881924,0.1428496712338644,0.1389032083489776,0.6117683355012986,0.6647783929531944,0.2648881947518328,10.0,MANUAL,15,35.0,3.0,10.0,2.0,4.0,3.0,44,14,10,17,10,37.0,1,2.0
10-05-30_17-50-09_manual.txt,10,0.3857892081808841,0.2571495062964691,0.1488382744246476,4464.999394465005,210.03465252632824,417.6,10965,1.6219841139500282,0.0863889660762379,0.371297615321755,0.3884379686056431,0.1540777958164154,0.1545284581623473,0.6516919618367606,0.7007923354066152,0.2749063686021767,10.0,MANUAL,15,35.0,3.0,10.0,2.0,4.0,3.0,44,14,10,17,10,37.0,1,2.0
10-05-30_17-50-09_manual.txt,10,0.4549179235919074,0.2842493638498372,0.2069572157790318,6208.509516155177,206.851458633742,422.9666666666666,11105,1.7117069450588125,0.0920844923322919,0.3959041692273679,0.4314590258669803,0.1695850727906228,0.1767061128908965,0.7357853460218263,0.8199184342651449,0.306746568882726,10.0,MANUAL,15,35.0,3.0,10.0,2.0,4.0,3.0,44,14,10,17,10,37.0,1,2.0
10-05-30_17-44-27_manual.txt,10,0.4036039059689699,0.2742051318974502,0.1629015429648412,4886.883387402273,204.90614241639855,421.4333333333333,10214,1.6437375125263092,0.0976325516484111,0.4061189375894674,0.4149326969096818,0.153398268127811,0.1705341996903099,0.7030948859083449,0.7371666217727447,0.2749346718118286,10.0,MANUAL,14,36.0,2.0,10.0,2.0,4.0,3.0,45,14,10,17,10,37.0,1,2.0
10-05-30_17-44-27_manual.txt,10,0.4629016553207847,0.3216978297749037,0.2142850853349004,6428.338274961677,204.28480898217185,422.3333333333333,10137,1.620319652776531,0.119806706316991,0.4820484109097725,0.4896418101052365,0.1780773276297641,0.2033420781968151,0.8193483111317691,0.8572698156726111,0.3131794802319174,10.0,MANUAL,14,36.0,2.0,10.0,2.0,4.0,3.0,45,14,10,17,10,37.0,1,2.0
10-05-30_17-44-27_manual.txt,10,0.4143410811820213,0.2878593096857361,0.1716842543635652,5150.355946652592,205.35125357068344,422.76666666666665,10274,1.6718263069968424,0.1008369663349012,0.4151969747065737,0.4422702367667145,0.1606258190308146,0.1761484931619516,0.7100313471145161,0.7714060897122645,0.2848454082333652,10.0,MANUAL,14,36.0,2.0,10.0,2.0,4.0,3.0,45,14,10,17,10,37.0,1,2.0
10-05-30_17-44-27_manual.txt,10,0.2483623120745912,0.1578782681035022,0.0616858942555118,1850.515141771099,211.65081877273497,418.6333333333333,11312,1.6482642655891628,0.0474723180425848,0.2198651926984076,0.2370934953623402,0.0967777540166498,0.0902606841893784,0.408607738398643,0.4455416662936016,0.1759151475062999,10.0,MANUAL,14,36.0,2.0,10.0,2.0,4.0,3.0,45,14,10,17,10,37.0,1,2.0
10-05-30_17-44-27_manual.txt,10,0.1512540907071125,0.1037007710948487,0.0228785625743879,686.3339986690628,224.52226729409037,407.0,12230,1.5303170864502706,0.0289063289789854,0.1426019918879378,0.1491985994489285,0.0724151026095399,0.050819533841072,0.2570796001108639,0.2661985963281952,0.1223858072762523,10.0,MANUAL,14,36.0,2.0,10.0,2.0,4.0,3.0,45,14,10,17,10,37.0,1,2.0
10-05-30_17-44-27_manual.txt,10,0.1531261148717924,0.1058930387047339,0.0234483886686849,703.4282116718807,225.1042126777136,407.9,12166,1.5415068357896806,0.0275801421182299,0.1462248455637249,0.1526063977042659,0.0730837511265449,0.0494389686985006,0.257561444157509,0.2725982101281169,0.1234470231543134,10.0,MANUAL,14,36.0,2.0,10.0,2.0,4.0,3.0,45,14,10,17,10,37.0,1,2.0
10-05-30_17-44-27_manual.txt,10,0.2711365474243827,0.1716835836921665,0.0735174779318122,2205.450820476437,208.1446598861679,418.8,10986,1.6428940976774522,0.0553325410168211,0.2512986844912102,0.2534415810513891,0.1033429284100872,0.1102531765850414,0.4680609544634116,0.4777711894278399,0.18912636473773,10.0,MANUAL,14,36.0,2.0,10.0,2.0,4.0,3.0,45,14,10,17,10,37.0,1,2.0
10-05-30_16-59-51_manual.txt,10,0.3910883104100698,0.2612133178902738,0.1529551650449046,4588.5019961820935,200.57567888671653,423.3333333333333,9955,1.5785174560095976,0.0939779976707358,0.4136508717101036,0.3833601129926444,0.1457141497847065,0.1643081103808148,0.7465315911576607,0.6867471236440476,0.2627414945450654,10.0,MANUAL,7,27.0,2.0,8.0,2.0,4.0,2.0,43,14,10,17,10,37.0,1,2.0
10-05-30_16-59-51_manual.txt,10,0.4076974872683117,0.3050579245801169,0.1662227818842913,4986.517233746856,200.4031861514327,423.9666666666666,9933,1.5647124416832228,0.1138595994036681,0.4761133483138989,0.4509227858470188,0.1689051273366981,0.1874218373136845,0.7872009222444436,0.7520110363207021,0.2841124861849261,10.0,MANUAL,7,27.0,2.0,8.0,2.0,4.0,2.0,43,14,10,17,10,37.0,1,2.0
10-05-30_16-59-51_manual.txt,10,0.3057597649339122,0.2188415562782583,0.0934921502574498,2804.6710155732385,202.4363862780324,423.9666666666666,10294,1.6309306908908152,0.0772659577601339,0.30862626439965,0.3366554628947151,0.1236830741477366,0.13099435849675,0.5273196003098016,0.5757519338350887,0.2128139824135886,10.0,MANUAL,7,27.0,2.0,8.0,2.0,4.0,2.0,43,14,10,17,10,37.0,1,2.0
10-05-30_16-59-51_manual.txt,10,0.4134745470420465,0.3090328689415928,0.1709668999482904,5128.836031548766,199.916618810757,424.7,9956,1.5545153611552165,0.1159240456861492,0.4785883639809528,0.4589672279974091,0.1697160650611767,0.1937393388671619,0.7883181682665825,0.7622357169493063,0.2868674951242784,10.0,MANUAL,7,27.0,2.0,8.0,2.0,4.0,2.0,43,14,10,17,10,37.0,1,2.0
10-05-30_16-59-51_manual.txt,10,0.2654850834323651,0.1871403824915489,0.0704846790143903,2114.4698857526955,205.21839391887085,421.9666666666666,10662,1.645065260085917,0.0643212149824286,0.2663651971193873,0.2842193499870143,0.108276989311834,0.1114488963469759,0.4540831987211836,0.4952187010989883,0.1873531064060006,10.0,MANUAL,7,27.0,2.0,8.0,2.0,4.0,2.0,43,14,10,17,10,37.0,1,2.0
10-05-30_16-59-51_manual.txt,10,0.198251273055348,0.1358006931960882,0.0393048774306472,1179.1070180419854,213.1113354662997,417.0,11519,1.612915255796927,0.0446007143143515,0.1886398197315389,0.2038464831586814,0.0846090822464252,0.0794504812898903,0.3383427591029739,0.3637224713110733,0.1464872264707348,10.0,MANUAL,7,27.0,2.0,8.0,2.0,4.0,2.0,43,14,10,17,10,37.0,1,2.0
10-05-30_16-59-51_manual.txt,10,0.1886596365826518,0.1289189070446302,0.0355936449303292,1067.7737542649477,210.64624940840028,417.6333333333333,11264,1.622405311899123,0.0408005862204551,0.1810241514119746,0.1943531713070626,0.0787884839576546,0.0731556883389681,0.317485490643838,0.3451049970193219,0.1369173931529998,10.0,MANUAL,7,27.0,2.0,8.0,2.0,4.0,2.0,43,14,10,17,10,37.0,1,2.0
10-05-30_16-59-51_manual.txt,10,0.2490193465119069,0.176468912224466,0.0620127020272847,1860.3190481165157,207.23176374641275,419.9,10679,1.624181713409539,0.0647319083625832,0.257147622549943,0.2656838987424701,0.1030459667371622,0.1129643451031461,0.4375893131526389,0.4601217826798815,0.1775050266811018,10.0,MANUAL,7,27.0,2.0,8.0,2.0,4.0,2.0,43,14,10,17,10,37.0,1,2.0
10-05-30_16-22-58_manual.txt,10,0.2607205761201071,0.1834110614842094,0.0679774847285581,2039.256564372016,212.9476819036173,414.23333333333335,11319,1.5203940126265385,0.059778813147704,0.2571166592711503,0.2716207771322571,0.116222993974474,0.1044650191020424,0.4467516149897085,0.4728754597965119,0.1983308776080435,10.0,MANUAL,2,29.0,1.0,7.0,2.0,2.0,2.0,34,14,10,17,10,37.0,1,2.0
10-05-30_16-22-58_manual.txt,10,0.3452469555153073,0.2535166484656245,0.1191994336070421,3575.863808777658,208.73189076683732,418.2,10572,1.5852095932540442,0.0899533705385235,0.3666056484348106,0.3816589033994224,0.1497361719737105,0.1515442079872936,0.6145455886897023,0.6397989521126469,0.2528955108541039,10.0,MANUAL,2,29.0,1.0,7.0,2.0,2.0,2.0,34,14,10,17,10,37.0,1,2.0
10-05-30_16-22-58_manual.txt,10,0.4069148409555589,0.2980412925162722,0.1655852072967976,4967.390633696634,206.9397128901245,419.5,10369,1.6052421925538003,0.1053550794852726,0.4258281900423278,0.45195908857777,0.1725138588766018,0.1744483595092504,0.7143615157937714,0.7630935530230387,0.2920297275125677,10.0,MANUAL,2,29.0,1.0,7.0,2.0,2.0,2.0,34,14,10,17,10,37.0,1,2.0
10-05-30_16-22-58_manual.txt,10,0.4239198548213441,0.3075074854718729,0.1797140337795421,5391.241299352483,206.3085438571624,420.6333333333333,10409,1.6325067166537823,0.1067692033474728,0.4440158307363369,0.4662142415568409,0.1751284011254522,0.1801247544047665,0.7455153980005907,0.7940033303139882,0.3000671917788411,10.0,MANUAL,2,29.0,1.0,7.0,2.0,2.0,2.0,34,14,10,17,10,37.0,1,2.0
10-05-30_16-22-58_manual.txt,10,0.3381654646926071,0.2295042268633142,0.1143596935005502,3430.676445323007,209.34096821571492,419.1666666666667,11095,1.6068014398572046,0.0749845202510592,0.315158155647306,0.3483063953169643,0.1392373997097729,0.13451993803805,0.554042282171747,0.6233680666165634,0.245435785473268,10.0,MANUAL,2,29.0,1.0,7.0,2.0,2.0,2.0,34,14,10,17,10,37.0,1,2.0
10-05-30_16-22-58_manual.txt,10,0.267163866528364,0.1880048950785208,0.0713789108754147,2141.2959473515657,215.15668053474568,415.9333333333333,11327,1.5774311790377291,0.0568192125755054,0.2629904949366721,0.2801880886119824,0.1177203996579367,0.0995677605814883,0.462240059307866,0.4891730066764123,0.1994780174154843,10.0,MANUAL,2,29.0,1.0,7.0,2.0,2.0,2.0,34,14,10,17,10,37.0,1,2.0
10-05-30_16-22-58_manual.txt,10,0.269029913311279,0.1898217310373934,0.0723795069065045,2171.31282768823,215.7154217373444,414.56666666666666,11452,1.5543949493910905,0.0569735010144895,0.2586870852797158,0.285661944973524,0.1196568713990369,0.0972368917420233,0.4441675377358449,0.4967716156972963,0.2019057785556462,10.0,MANUAL,2,29.0,1.0,7.0,2.0,2.0,2.0,34,14,10,17,10,37.0,1,2.0
10-05-30_16-22-58_manual.txt,10,0.2629248000239536,0.185477146308741,0.0691317548594646,2073.88351402908,215.9904542759962,412.8666666666667,11678,1.5346202761548091,0.0590206548950124,0.2571030179733101,0.2756884613728685,0.1193759758102834,0.1040678038301198,0.4450609093137638,0.4805274431391895,0.2010095739154657,10.0,MANUAL,2,29.0,1.0,7.0,2.0,2.0,2.0,34,14,10,17,10,37.0,1,2.0
10-05-30_16-53-14_manual.txt,10,0.4401787666462194,0.2832404036789811,0.1937638053997002,5812.720398185606,203.61687590392,420.5333333333333,11090,1.6058425480964371,0.1035871306547593,0.4361522121394831,0.4144756401117678,0.1660122706664492,0.1939235123215744,0.8291725283334163,0.7562034160216633,0.2996240112396553,10.0,MANUAL,6,35.0,2.0,12.0,2.0,3.0,2.0,35,14,10,17,10,37.0,1,2.0
10-05-30_16-53-14_manual.txt,10,0.5120207204881321,0.383567411759779,0.2621739573410973,7864.956546275577,203.62257752558295,421.8333333333333,10131,1.6375914619192855,0.1451891561804174,0.5713422486571444,0.57761192468831,0.2139564705923589,0.2392666599166286,0.9365684456112304,0.9601651132255248,0.3587116543798951,10.0,MANUAL,6,35.0,2.0,12.0,2.0,3.0,2.0,35,14,10,17,10,37.0,1,2.0
10-05-30_16-53-14_manual.txt,10,0.3637186089642273,0.260539638586939,0.1322956363614179,3968.736795206175,207.64766098561051,420.8666666666667,10688,1.6484372645731045,0.0887371506794015,0.3700201579679465,0.3952580385038666,0.1507229878011774,0.1482318590717179,0.6295219312065792,0.6803816803265432,0.2583904718504773,10.0,MANUAL,6,35.0,2.0,12.0,2.0,3.0,2.0,35,14,10,17,10,37.0,1,2.0
10-05-30_16-53-14_manual.txt,10,0.1665544994627761,0.1091954704154928,0.0277413260021626,832.2120387388768,224.32133953196077,407.6,13041,1.5239971597952788,0.0309989942983989,0.143252883173268,0.1562133234959126,0.0789393713759099,0.0574489266575042,0.2654433875685752,0.2913375570207271,0.1364113974513656,10.0,MANUAL,6,35.0,2.0,12.0,2.0,3.0,2.0,35,14,10,17,10,37.0,1,2.0
10-05-30_16-53-14_manual.txt,10,0.1826480266392289,0.1299470051035835,0.0333614136823272,1000.8090490561348,223.76721535069012,406.6,12114,1.5028507040658932,0.0401356170772907,0.1761837977037091,0.1895648599896159,0.0901220339205097,0.068108578567209,0.3018908004491152,0.331060580825538,0.1511171712666335,10.0,MANUAL,6,35.0,2.0,12.0,2.0,3.0,2.0,35,14,10,17,10,37.0,1,2.0
10-05-30_16-53-14_manual.txt,10,0.2109964746051151,0.1461353385310061,0.0445209963289979,1335.5853688736092,217.5605438545431,413.26666666666665,11553,1.5496160026487085,0.0462838810481278,0.2051791091180139,0.2149776658186991,0.0953457733007439,0.0809422250459495,0.3627984923937853,0.3799978516012404,0.1626319125002558,10.0,MANUAL,6,35.0,2.0,12.0,2.0,3.0,2.0,35,14,10,17,10,37.0,1,2.0
10-05-30_16-53-14_manual.txt,10,0.1819815449558623,0.1280999702677449,0.0331183866507442,993.5184811356764,216.85925291893247,411.5333333333333,11633,1.5317544522267277,0.0388440904262633,0.1775479373492607,0.1889657435658572,0.0835237852689478,0.0656851723032891,0.3097381902257221,0.3326941773807768,0.1417108301454702,10.0,MANUAL,6,35.0,2.0,12.0,2.0,3.0,2.0,35,14,10,17,10,37.0,1,2.0
10-05-30_17-26-18_manual.txt,10,0.3200922449828426,0.2253685446004611,0.1024624607135132,3073.771358944684,213.45625290884055,416.6333333333333,10893,1.5796828295528769,0.0738720416034235,0.3202239242122905,0.3384542683686403,0.1359762392543381,0.1268030972796961,0.553612120419333,0.5882538296287537,0.2337359712302756,10.0,MANUAL,10,31.0,2.0,10.0,2.0,4.0,2.0,43,14,10,17,10,37.0,1,2.0
10-05-30_17-26-18_manual.txt,10,0.5703265408082996,0.4002274744955659,0.3252832059238917,9758.17089451083,207.05425425539312,420.5333333333333,10384,1.6492455674201625,0.1413933394588832,0.5737179306120692,0.6089517990429415,0.2276775676198837,0.2447187963522588,0.9784059514100748,1.0581823244097286,0.3964604149308128,10.0,MANUAL,10,31.0,2.0,10.0,2.0,4.0,2.0,43,14,10,17,10,37.0,1,2.0
10-05-30_17-26-18_manual.txt,10,0.3942111768033073,0.267278855698527,0.1554076321710541,4662.073557499453,214.15038948320137,416.4,11411,1.6242282510491015,0.0831700409122062,0.3827165306872183,0.3963634402401131,0.1652705054185765,0.1499071725212085,0.6796161520420831,0.7103040571815262,0.2877598711952532,10.0,MANUAL,10,31.0,2.0,10.0,2.0,4.0,2.0,43,14,10,17,10,37.0,1,2.0
10-05-30_17-26-18_manual.txt,10,0.2314050007664117,0.1573054072750364,0.0535500593816824,1606.4482313910903,226.99634649068744,407.26666666666665,12698,1.5246175034110994,0.0440578782193644,0.2129708848393495,0.2242337410605129,0.1115161250657197,0.0795272554338018,0.3923830282992087,0.4041463905746745,0.1887597204697988,10.0,MANUAL,10,31.0,2.0,10.0,2.0,4.0,2.0,43,14,10,17,10,37.0,1,2.0
10-05-30_17-26-18_manual.txt,10,0.1850939447603747,0.124958520975448,0.0342609104173038,1027.793051608699,231.21612167020496,403.8333333333333,12791,1.4526745787017528,0.028371060179911,0.1610366070430305,0.1778668354014551,0.0920092217544697,0.0525396564531497,0.3135146426627402,0.3207284165275713,0.1558978632307701,10.0,MANUAL,10,31.0,2.0,10.0,2.0,4.0,2.0,43,14,10,17,10,37.0,1,2.0
10-05-30_17-26-18_manual.txt,10,0.1989330551925299,0.138038088954892,0.0395756796375554,1187.2308134470247,230.81967529746385,401.8,13224,1.4544232591719009,0.0342143946744968,0.1747370884479379,0.1934724050169298,0.103765017110636,0.0650455846210506,0.3258435236682671,0.3446633960841607,0.1723074006936917,10.0,MANUAL,10,31.0,2.0,10.0,2.0,4.0,2.0,43,14,10,17,10,37.0,1,2.0
10-05-30_17-26-18_manual.txt,10,0.2857908234985699,0.2007353907206183,0.0816791174332385,2450.291843879722,222.22695239037395,408.4333333333333,12432,1.4770011304246469,0.0580325794765423,0.2616529636977344,0.2906745706486998,0.1413600839811494,0.1057302364216095,0.4739036868293783,0.5054531627544818,0.2357479500923,10.0,MANUAL,10,31.0,2.0,10.0,2.0,4.0,2.0,43,14,10,17,10,37.0,1,2.0
10-05-30_17-19-57_manual.txt,10,0.4246649710257761,0.3036072334572691,0.1803463491612953,5410.210128489699,203.13342597618237,422.6333333333333,10087,1.6099330343334382,0.1090503932442951,0.458568185358346,0.4584622469672266,0.1706340934580195,0.1849225520044239,0.7760633535487628,0.7871353483530612,0.2953107995305568,10.0,MANUAL,9,32.0,2.0,10.0,2.0,4.0,2.0,43,14,10,17,10,37.0,1,2.0
10-05-30_17-19-57_manual.txt,10,0.4944932468885858,0.3658348746056746,0.2445317222758251,7335.707136552477,204.657877723218,420.8666666666667,10287,1.6081038530577318,0.1410859953060074,0.5449162412988494,0.5481646477713397,0.2098206404009993,0.2327562545191512,0.9110522715958714,0.9193987376996976,0.3545753781661211,10.0,MANUAL,9,32.0,2.0,10.0,2.0,4.0,2.0,43,14,10,17,10,37.0,1,2.0
10-05-30_17-19-57_manual.txt,10,0.4377755718900014,0.3137202499201278,0.1916538398049446,5749.423540308533,203.7593955594252,421.7,10279,1.6673773143193202,0.1152095703698261,0.4574038582996069,0.4754613897976549,0.1776890679913867,0.1994407878997682,0.7752667806836353,0.815247352184623,0.305916958685236,10.0,MANUAL,9,32.0,2.0,10.0,2.0,4.0,2.0,43,14,10,17,10,37.0,1,2.0
10-05-30_17-19-57_manual.txt,10,0.2561340959098762,0.1703887283588651,0.0656068619829691,1968.14025262709,212.42223586353128,419.8333333333333,11163,1.684143573503475,0.0541760757253703,0.2356597360852828,0.260198645461735,0.1018802726297054,0.0955914896467661,0.4211253529328355,0.4750259453063444,0.1808500769848248,10.0,MANUAL,9,32.0,2.0,10.0,2.0,4.0,2.0,43,14,10,17,10,37.0,1,2.0
10-05-30_17-19-57_manual.txt,10,0.1327875255245309,0.0852571333074147,0.0176331147054181,528.9758080478389,226.7402378580828,407.8333333333333,12937,1.57660869472844,0.0222613933620406,0.1168273079748486,0.1201959400806078,0.0608948520870342,0.0469791174727523,0.2238708819211582,0.2274102339860536,0.1053725505122871,10.0,MANUAL,9,32.0,2.0,10.0,2.0,4.0,2.0,43,14,10,17,10,37.0,1,2.0
10-05-30_17-19-57_manual.txt,10,0.1048677511856436,0.0715814906703186,0.0109976118257949,329.9173571620218,232.28763151022403,402.4666666666666,13084,1.4851571328592137,0.0174047871138177,0.0946706277483526,0.0997601324784925,0.0533563127242698,0.0334957967912854,0.1742704867872671,0.180022663375208,0.0897411699170027,10.0,MANUAL,9,32.0,2.0,10.0,2.0,4.0,2.0,43,14,10,17,10,37.0,1,2.0
10-05-30_17-19-57_manual.txt,10,0.1122902980994399,0.0775524677332511,0.0126095313649732,378.2733314178322,234.03874022727436,402.1333333333333,12981,1.5034190992986405,0.0206106247372239,0.1035559585611268,0.1081226240642725,0.0582069582358065,0.0374718323738027,0.1882164785206868,0.1937586184679222,0.0976689516312214,10.0,MANUAL,9,32.0,2.0,10.0,2.0,4.0,2.0,43,14,10,17,10,37.0,1,2.0
10-05-30_17-38-36_manual.txt,10,0.3247856937046835,0.2036551730904383,0.1054892631440039,3164.5724050569743,206.6967835983401,420.1666666666667,10759,1.644135211256183,0.070301935755903,0.3000822250092267,0.3069035964088482,0.1176348346185004,0.130389855717353,0.5577311679092731,0.5789725077875357,0.2178699714948504,10.0,MANUAL,13,35.0,2.0,10.0,2.0,4.0,3.0,45,14,10,17,10,37.0,1,2.0
10-05-30_17-38-36_manual.txt,10,0.4538640964215461,0.3299211568465284,0.2059994846700355,6179.778540616395,204.3397854761101,421.9,10140,1.635335939156169,0.1229071027781075,0.4954195182624544,0.4946400626319241,0.1856441201840133,0.2025547404534692,0.8316932676128832,0.8361954055576928,0.318785828539903,10.0,MANUAL,13,35.0,2.0,10.0,2.0,4.0,3.0,45,14,10,17,10,37.0,1,2.0
10-05-30_17-38-36_manual.txt,10,0.5879405261620086,0.4207651276968056,0.3456855851564981,10370.221869109786,200.9337839918499,422.6,10162,1.4796373973317425,0.1517449339165072,0.6825303128410987,0.6032116766859222,0.2333732196789261,0.2598510903978716,1.1780199357643806,1.0263078234093632,0.402497665402123,10.0,MANUAL,13,35.0,2.0,10.0,2.0,4.0,3.0,45,14,10,17,10,37.0,1,2.0
10-05-30_17-38-36_manual.txt,10,0.1778686464521117,0.1152003094252353,0.0316383100010396,949.117661721189,216.06757486038063,417.0,11749,1.625659807025427,0.032580850652106,0.1656573271114278,0.1687841655003702,0.0740448317087908,0.0600246208743752,0.2994529239960164,0.3130156689131755,0.1292847613125694,10.0,MANUAL,13,35.0,2.0,10.0,2.0,4.0,3.0,45,14,10,17,10,37.0,1,2.0
10-05-30_17-38-36_manual.txt,10,0.1709401326308831,0.1137035424361569,0.0292215029939636,876.6158683159169,217.54924991218795,414.56666666666666,11573,1.58104488503286,0.0339663858708096,0.1588147534064145,0.1684457803236892,0.0725637913377517,0.0612275197474909,0.2903101962995582,0.3072176847733073,0.127429294997872,10.0,MANUAL,13,35.0,2.0,10.0,2.0,4.0,3.0,45,14,10,17,10,37.0,1,2.0
10-05-30_17-38-36_manual.txt,10,0.1305754340014314,0.0863422210824243,0.0170505123150726,511.498318939865,220.78486051422735,411.6,12004,1.5574863594403934,0.0233385832069707,0.1203251858601305,0.1254468633071218,0.0579107562321073,0.0446420140442007,0.2222737027310329,0.231111542698721,0.1005396425429816,10.0,MANUAL,13,35.0,2.0,10.0,2.0,4.0,3.0,45,14,10,17,10,37.0,1,2.0
10-05-30_17-38-36_manual.txt,10,0.1315597487060847,0.0896442081982172,0.0173085444310892,519.239024388245,224.3922447024489,409.4,12003,1.5340304083511835,0.0240721090954853,0.1245706929871508,0.1281131130003104,0.0617647338378755,0.0418483312208875,0.2204358773473662,0.2307209465970917,0.105614128792741,10.0,MANUAL,13,35.0,2.0,10.0,2.0,4.0,3.0,45,14,10,17,10,37.0,1,2.0
