filename,patient,rmse,mav,var,energy,mnf,mdf,zc,fr,mav_arr_0,mav_arr_1,mav_arr_2,mav_arr_3,std_0,std_1,std_2,std_3,ID,Task,File_number,STAI_Total,Fatigue,Stress,Mental_Demand,Physical_Demand,Frustration,NASA_Total,PSS,NARS_S1,NARS_S2,NARS_S3,Age,Sex,Experience
06-05-30_11-03-54_manual.txt,6,0.3036882296561213,0.2315614216768978,0.0922296151521741,2766.7962249500724,229.98088463417864,398.26666666666665,11873,1.4245004209497716,0.0799040450364044,0.3518100774100146,0.312535403255234,0.1630308145147121,0.1335286876136531,0.5810146551307878,0.5120117532402828,0.2615117169464279,6.0,MANUAL,7,34.0,2.0,8.0,3.0,2.0,3.0,41,13,8,8,8,27.0,0,1.0
06-05-30_11-03-54_manual.txt,6,0.3221608032770645,0.244838006508659,0.1037910428695524,3113.6274950437028,224.33989325971865,403.5333333333333,11300,1.472020417104464,0.0879166146495039,0.397755778283164,0.3240601603336134,0.1637486129812236,0.1448605694574488,0.6636507761268441,0.53950344041442,0.2631507372341206,6.0,MANUAL,7,34.0,2.0,8.0,3.0,2.0,3.0,41,13,8,8,8,27.0,0,1.0
06-05-30_11-03-54_manual.txt,6,0.2742793396840079,0.2083961882649731,0.0752316638996253,2256.874685324862,238.65787310291228,391.8,12589,1.3932198551937902,0.0700092177992438,0.3081143916790906,0.2741486147255016,0.1578214651103205,0.1160149815553815,0.5104909665342481,0.4553087965827431,0.2579439383147295,6.0,MANUAL,7,34.0,2.0,8.0,3.0,2.0,3.0,41,13,8,8,8,27.0,0,1.0
06-05-30_11-03-54_manual.txt,6,0.2716262486782129,0.207003488038324,0.0737832784136121,2213.4245691299498,234.3164100165979,396.3333333333333,12364,1.427916435339726,0.0695175304745552,0.3157228288006775,0.2755160232094455,0.1508736591886918,0.1157915078461115,0.5217843052895205,0.4555665622240343,0.2432202703456602,6.0,MANUAL,7,34.0,2.0,8.0,3.0,2.0,3.0,41,13,8,8,8,27.0,0,1.0
06-05-30_11-03-54_manual.txt,6,0.2923398119226204,0.2212694637677021,0.0854654144821024,2563.8769690485924,232.9759688676283,396.6333333333333,12242,1.436766404160455,0.0725154428138404,0.3207952063360666,0.3001339757847465,0.1617939238274253,0.121673453317264,0.543454073194052,0.5003568936425434,0.2622919178370689,6.0,MANUAL,7,34.0,2.0,8.0,3.0,2.0,3.0,41,13,8,8,8,27.0,0,1.0
06-05-30_11-03-54_manual.txt,6,0.2794603512911945,0.2077279778436168,0.0781006913001745,2342.942638313936,235.33559114896445,394.9,12711,1.4084649332032388,0.0671913872381571,0.2957030474507602,0.281563735610167,0.1556521373707565,0.1137861890614023,0.5107509668580577,0.4771518458100586,0.2531518536859752,6.0,MANUAL,7,34.0,2.0,8.0,3.0,2.0,3.0,41,13,8,8,8,27.0,0,1.0
06-05-30_11-03-54_manual.txt,6,0.2570866449975494,0.1917999989933514,0.0660957462276369,1982.80629108288,238.58228122433516,391.7,13035,1.3844425205211055,0.0587093547157019,0.2668200972262646,0.2540857658073362,0.1498684947777216,0.1013558542595759,0.455701118827545,0.426411966391326,0.2408587691694997,6.0,MANUAL,7,34.0,2.0,8.0,3.0,2.0,3.0,41,13,8,8,8,27.0,0,1.0
06-05-30_11-27-56_manual.txt,6,0.2780018239467343,0.2053773691316779,0.0772875903707234,2318.550423531332,212.967968265866,411.3,10890,1.4879819246328585,0.0685715489331144,0.3220241060503305,0.2887458861321157,0.1288908607104305,0.1181666959064914,0.5579727553468349,0.4780417039878786,0.2123107728017695,6.0,MANUAL,8,38.0,2.0,7.0,2.0,1.0,4.0,34,13,8,8,8,27.0,0,1.0
06-05-30_11-27-56_manual.txt,6,0.2924317208645763,0.2201234066875429,0.085519162006551,2565.489341034524,211.80185647461064,412.6,10526,1.504654929566592,0.0738943259939207,0.3449774313255659,0.3116874746605203,0.1346627859499177,0.1218945677681941,0.579948139562272,0.5151141297524504,0.2218159784641711,6.0,MANUAL,8,38.0,2.0,7.0,2.0,1.0,4.0,34,13,8,8,8,27.0,0,1.0
06-05-30_11-27-56_manual.txt,6,0.2965960896408315,0.2226427034462187,0.087972172795992,2639.077211706965,210.9816179546387,414.23333333333335,10428,1.5025591244496337,0.0742843446908323,0.3591111491240212,0.3113061081857082,0.1318323661179868,0.1249459179181609,0.6045491785569743,0.5155489437498394,0.2182727870501428,6.0,MANUAL,8,38.0,2.0,7.0,2.0,1.0,4.0,34,13,8,8,8,27.0,0,1.0
06-05-30_11-27-56_manual.txt,6,0.3256307478991754,0.2467012731369355,0.1060389186079966,3181.0615193212907,206.44065433381587,417.0,10126,1.5065704239465048,0.0847068324490499,0.4109135410409498,0.3422134173744112,0.1403927525251488,0.1391906838809957,0.6795864545656104,0.567394527828906,0.2307298970259832,6.0,MANUAL,8,38.0,2.0,7.0,2.0,1.0,4.0,34,13,8,8,8,27.0,0,1.0
06-05-30_11-27-56_manual.txt,6,0.2992311693212012,0.2209600001591462,0.0895422774359145,2686.1787808000017,210.0627562570777,414.5,10498,1.491167730979689,0.0730076474719704,0.3617596179907854,0.3062620119719871,0.1320735343924627,0.126247301124104,0.6210942964078938,0.5124125899255203,0.2183280987618708,6.0,MANUAL,8,38.0,2.0,7.0,2.0,1.0,4.0,34,13,8,8,8,27.0,0,1.0
06-05-30_11-27-56_manual.txt,6,0.3161767077052267,0.2401580927516847,0.0999710428634118,2999.031314859492,208.0874773445213,416.4,10235,1.5059521860467011,0.0813292220680039,0.403091009164018,0.3330662057070888,0.1397710261144084,0.1319389309851964,0.6589613713039093,0.5502039480857226,0.229087615444964,6.0,MANUAL,8,38.0,2.0,7.0,2.0,1.0,4.0,34,13,8,8,8,27.0,0,1.0
06-05-30_11-38-29_manual.txt,6,0.2782528954814985,0.2033095160075884,0.0774272547523294,2322.7402153151315,233.7229895276258,395.6333333333333,12893,1.4365387000450092,0.062868905709505,0.2873906410718206,0.2733440053270048,0.1531830538339934,0.1079234995385653,0.5061155860455173,0.4670184905054765,0.2489031722781303,6.0,MANUAL,10,33.0,1.0,6.0,2.0,2.0,3.0,32,13,8,8,8,27.0,0,1.0
06-05-30_11-38-29_manual.txt,6,0.3162211316334744,0.2388337954752859,0.099999137396135,2999.8741227466544,228.0254155067676,402.23333333333335,11674,1.487030118605197,0.0817719833421204,0.3689744682631803,0.3223065143488952,0.1634284659644895,0.1382696714847412,0.6189039830492955,0.5364312209825656,0.2633787444044181,6.0,MANUAL,10,33.0,1.0,6.0,2.0,2.0,3.0,32,13,8,8,8,27.0,0,1.0
06-05-30_11-38-29_manual.txt,6,0.3008070834055131,0.2255275350994165,0.0904879176908543,2714.5470428079398,229.9357564997721,399.9,11927,1.4512497666215338,0.0715340968332029,0.3520137769797922,0.3003408765062196,0.1585783599456952,0.1227071703291116,0.5938105276863018,0.5006473077075545,0.2571577937571495,6.0,MANUAL,10,33.0,1.0,6.0,2.0,2.0,3.0,32,13,8,8,8,27.0,0,1.0
06-05-30_11-38-29_manual.txt,6,0.3097162265507779,0.2307558318010678,0.095927338566805,2877.724229665584,229.76267531116,399.8666666666667,12046,1.465736521237405,0.0785780017452713,0.3498784986425586,0.3088744396564969,0.1633989698183677,0.1324681632236408,0.5953678620033241,0.525999440416233,0.2647074586007844,6.0,MANUAL,10,33.0,1.0,6.0,2.0,2.0,3.0,32,13,8,8,8,27.0,0,1.0
06-05-30_11-38-29_manual.txt,6,0.3040852422719102,0.23202397626233,0.092470916931464,2774.0350370269894,227.73551120990032,402.1,11659,1.4867729200179305,0.0792130403964348,0.3640930129160233,0.3133049857809094,0.1584084518936067,0.1321579841420967,0.5986838033140252,0.5142941986241304,0.2565936910752818,6.0,MANUAL,10,33.0,1.0,6.0,2.0,2.0,3.0,32,13,8,8,8,27.0,0,1.0
06-05-30_11-38-29_manual.txt,6,0.307461879247267,0.2347687208348942,0.0945359583888739,2835.984215707829,229.4253091792254,400.06666666666666,11709,1.461863277012927,0.0784552818307497,0.3718059834013061,0.308669793809927,0.1623941654871006,0.1322341609083622,0.6129908114926743,0.510034267578112,0.2625018913311101,6.0,MANUAL,10,33.0,1.0,6.0,2.0,2.0,3.0,32,13,8,8,8,27.0,0,1.0
06-05-30_11-58-52_manual.txt,6,0.3532130217581194,0.2643029354804728,0.1247635975260859,3742.783162185053,229.63956214262896,399.73333333333335,11901,1.463053222654927,0.0820726562484292,0.4104535359342393,0.34943755308218,0.1857719627504024,0.1394573736228747,0.7060681143422074,0.5850892360769001,0.3039534106476452,6.0,MANUAL,14,37.0,3.0,8.0,2.0,3.0,3.0,35,13,8,8,8,27.0,0,1.0
06-05-30_11-58-52_manual.txt,6,0.3500772258818041,0.2667503141489683,0.1225581493527447,3676.6219224329902,227.30986968060245,401.7,11623,1.4642072515205058,0.0857838627837715,0.4112044759195614,0.3605990585457395,0.1804247871773298,0.1424386243850522,0.6874181465190248,0.59858774837368,0.2903473393819357,6.0,MANUAL,14,37.0,3.0,8.0,2.0,3.0,3.0,35,13,8,8,8,27.0,0,1.0
06-05-30_11-58-52_manual.txt,6,0.3308871955032293,0.2508842747860878,0.109489985814186,3284.5900844397684,227.14391254523835,401.3666666666667,11693,1.465181744864152,0.0812276041734766,0.3858031530410981,0.3401405231379911,0.1734446928420393,0.1348695206652736,0.6339753184465129,0.5617643887670165,0.278940232586765,6.0,MANUAL,14,37.0,3.0,8.0,2.0,3.0,3.0,35,13,8,8,8,27.0,0,1.0
06-05-30_11-58-52_manual.txt,6,0.3647687853517367,0.2747276712934012,0.1330607021237188,3991.68800300944,221.27840854322488,406.1,11401,1.4776861238804837,0.0879471355977666,0.4261983174023,0.3780346873704717,0.1804629647814471,0.1483209718118247,0.7189034930797665,0.6316349172845158,0.2930610810370631,6.0,MANUAL,14,37.0,3.0,8.0,2.0,3.0,3.0,35,13,8,8,8,27.0,0,1.0
06-05-30_11-58-52_manual.txt,6,0.3231809620467714,0.2431142299409547,0.1044494158766725,3133.3780268843,223.1659785232933,403.4333333333333,11774,1.4365309834782651,0.0807937606236447,0.3724541353175057,0.3318839231506184,0.1664469247198587,0.1345616670683528,0.639520611025316,0.5518135821338558,0.2692876347112592,6.0,MANUAL,14,37.0,3.0,8.0,2.0,3.0,3.0,35,13,8,8,8,27.0,0,1.0
06-05-30_11-58-52_manual.txt,6,0.2981273860966152,0.2258916592042849,0.0888829011041704,2666.398150224009,236.0825937865486,395.56666666666666,12499,1.417164322422683,0.0685863144819301,0.3189119169115927,0.3074680896733098,0.1691714965079126,0.1160112548470899,0.53088179329472,0.5095919610050297,0.273303827610442,6.0,MANUAL,14,37.0,3.0,8.0,2.0,3.0,3.0,35,13,8,8,8,27.0,0,1.0
06-05-30_11-58-52_manual.txt,6,0.2434370210653918,0.1927133724360607,0.0592635586771479,1777.8474967557609,241.25147290778384,390.9666666666666,12567,1.3173917343416586,0.0512212427506205,0.2482824400474384,0.2679542551486081,0.1502608469639251,0.0833338018642369,0.4028118376390812,0.4346833302683571,0.2410894041503305,6.0,MANUAL,14,37.0,3.0,8.0,2.0,3.0,3.0,35,13,8,8,8,27.0,0,1.0
06-05-30_11-33-10_manual.txt,6,0.2632697460783385,0.1967080587305973,0.0693132696424742,2079.328776004585,218.82237084213,407.1333333333333,11121,1.488017059534911,0.0671771388977775,0.3061673929513666,0.2713172440780412,0.1269918834108468,0.1135340512847007,0.5192885951742943,0.4524106364019347,0.2091342223408188,6.0,MANUAL,9,34.0,2.0,7.0,2.0,1.0,3.0,31,13,8,8,8,27.0,0,1.0
06-05-30_11-33-10_manual.txt,6,0.3065309463342188,0.2268867283993013,0.0939643532056585,2818.836631816552,217.6907267612125,408.0,11119,1.487342878669862,0.0776986388927643,0.3559679294355578,0.3135371246558321,0.145144893220883,0.1331943905242703,0.6082167536228735,0.5223881616282033,0.2394110096443019,6.0,MANUAL,9,34.0,2.0,7.0,2.0,1.0,3.0,31,13,8,8,8,27.0,0,1.0
06-05-30_11-33-10_manual.txt,6,0.2831437008496264,0.2127196087514217,0.0801730277650815,2405.1106599246823,221.063621733419,407.0333333333333,11084,1.489255845863088,0.0717811237660097,0.336179405720211,0.2941293051125466,0.1359443050699507,0.1189320997778464,0.5614329139927193,0.4851311562485498,0.2240579623578396,6.0,MANUAL,9,34.0,2.0,7.0,2.0,1.0,3.0,31,13,8,8,8,27.0,0,1.0
06-05-30_11-33-10_manual.txt,6,0.3221740596429836,0.2407141638668661,0.1037995846929971,3113.8837412052226,220.2409827274288,408.6,10992,1.5062481334968156,0.0802990941962267,0.3808606532413336,0.3324097751315244,0.151800367009747,0.1317616593895925,0.6429027521280326,0.5581942091603452,0.2512354129010648,6.0,MANUAL,9,34.0,2.0,7.0,2.0,1.0,3.0,31,13,8,8,8,27.0,0,1.0
06-05-30_11-33-10_manual.txt,6,0.3603655900282833,0.272945718478639,0.1298676873993461,3895.900754292984,221.36055516251625,407.5333333333333,11060,1.4974080814952295,0.0880651357411374,0.4392592039175205,0.370689338644619,0.1738013699795243,0.1503672810017467,0.7283238487664294,0.6160947909073228,0.2844977149099899,6.0,MANUAL,9,34.0,2.0,7.0,2.0,1.0,3.0,31,13,8,8,8,27.0,0,1.0
06-05-30_11-33-10_manual.txt,6,0.3061224308849923,0.2288433838031186,0.0937140664931533,2811.3282807281066,225.7793366930971,404.8333333333333,11506,1.50562029667628,0.0774882454173035,0.368857027289953,0.3042696805085647,0.1530187869910408,0.1302436214656029,0.621126946220456,0.5085755805272436,0.2487871195375623,6.0,MANUAL,9,34.0,2.0,7.0,2.0,1.0,3.0,31,13,8,8,8,27.0,0,1.0
06-05-30_10-47-39_manual.txt,6,0.3623237449209318,0.270425078739139,0.1312828722292694,3938.354884005853,211.7351244881129,414.1666666666667,10629,1.4919101321490378,0.0863867819823112,0.4452806698493831,0.3735582054836087,0.1632353892994961,0.1433730705726811,0.7399290824181318,0.6268480007256706,0.2685933638021429,6.0,MANUAL,5,39.0,1.0,6.0,3.0,2.0,3.0,37,13,8,8,8,27.0,0,1.0
06-05-30_10-47-39_manual.txt,6,0.3347394656582089,0.2486981030168693,0.1120542450106435,3361.515296074296,217.46576225436095,407.3333333333333,11239,1.4432421208482489,0.0813226209136376,0.3904342652554049,0.3398972161661209,0.1619620300554749,0.1381111096672358,0.6684979658238185,0.5659700412191396,0.2656739249031497,6.0,MANUAL,5,39.0,1.0,6.0,3.0,2.0,3.0,37,13,8,8,8,27.0,0,1.0
06-05-30_10-47-39_manual.txt,6,0.2353749952652197,0.1837644645208447,0.0554032351706078,1662.041651883066,228.3317196315915,397.8,11618,1.353500805489003,0.060559550987176,0.2707936602028573,0.2502777656863024,0.1313922655697146,0.0989519841765856,0.4436638669935649,0.4088712463563981,0.211302869034005,6.0,MANUAL,5,39.0,1.0,6.0,3.0,2.0,3.0,37,13,8,8,8,27.0,0,1.0
06-05-30_10-47-39_manual.txt,6,0.2944856922677468,0.2214617142107143,0.0867247137742065,2601.6546885124217,218.19111924083467,407.3,11190,1.4340278510203854,0.0715570333074185,0.3396113954433397,0.3078462683863587,0.1447914321013277,0.1209903165096547,0.5724534090762766,0.5133440973632141,0.2372760341430142,6.0,MANUAL,5,39.0,1.0,6.0,3.0,2.0,3.0,37,13,8,8,8,27.0,0,1.0
06-05-30_10-47-39_manual.txt,6,0.2845096970418357,0.2175061660951164,0.0809484659930368,2428.373031325113,223.9638328264195,402.26666666666665,11554,1.413824063620968,0.0697447696582194,0.3284507327909054,0.2979273766848295,0.1494167655167007,0.1165911622760653,0.5459275448331871,0.4896658639214084,0.2439208240043924,6.0,MANUAL,5,39.0,1.0,6.0,3.0,2.0,3.0,37,13,8,8,8,27.0,0,1.0
06-05-30_10-47-39_manual.txt,6,0.2931933304750373,0.222227746685227,0.0859651945415291,2578.8698710513327,224.3618921173185,403.2,11655,1.4206405631797328,0.071153924270135,0.3284217066129107,0.3065611458336947,0.1527470507362628,0.1173016889517926,0.5481868287519965,0.5113061802262864,0.2496504051511753,6.0,MANUAL,5,39.0,1.0,6.0,3.0,2.0,3.0,37,13,8,8,8,27.0,0,1.0
06-05-30_10-47-39_manual.txt,6,0.3010734015275196,0.2232832436190024,0.0906482147145082,2719.3557932205317,227.3435897952588,399.5,11688,1.3687402831757711,0.070434247769791,0.3199063803691013,0.3123219780078515,0.1564902801963561,0.1179961226948888,0.5482694975944569,0.5220156948306114,0.2613500410149494,6.0,MANUAL,5,39.0,1.0,6.0,3.0,2.0,3.0,37,13,8,8,8,27.0,0,1.0
06-05-30_11-43-45_manual.txt,6,0.2984121509828312,0.2243754499126627,0.0890527802802094,2671.4943556260023,218.95669743739603,407.8666666666667,11043,1.5027234621374954,0.0757789354171389,0.3614517652914892,0.305378402392845,0.1420817658684476,0.126754576993671,0.6170084763780531,0.5090577869225106,0.2331069610461338,6.0,MANUAL,11,35.0,2.0,7.0,2.0,2.0,3.0,27,13,8,8,8,27.0,0,1.0
06-05-30_11-43-45_manual.txt,6,0.3583025472866856,0.2676868603977089,0.1283849948919573,3851.421461763827,214.58133460741996,412.7,10743,1.531081450374446,0.0906363446319662,0.4555172560516435,0.3575266923029004,0.161711831775514,0.1509611700392532,0.7777024169446948,0.6038454875639716,0.2619973217511532,6.0,MANUAL,11,35.0,2.0,7.0,2.0,2.0,3.0,27,13,8,8,8,27.0,0,1.0
06-05-30_11-43-45_manual.txt,6,0.3277844920266373,0.2481587642134137,0.1074462547549858,3223.280196394819,217.04273196825855,412.3,10588,1.5554212477943594,0.0847369244279224,0.4228144804717885,0.3337893898340291,0.1503549670809937,0.1393350182994267,0.7057322163540168,0.5556009619035229,0.245534963301376,6.0,MANUAL,11,35.0,2.0,7.0,2.0,2.0,3.0,27,13,8,8,8,27.0,0,1.0
06-05-30_11-43-45_manual.txt,6,0.3000178262313365,0.2258673144198358,0.0900136965131268,2700.3208816972938,219.6460461380011,408.06666666666666,10883,1.5125441816441114,0.0798241022640355,0.3833453396479181,0.2957860901231036,0.1423677922082921,0.136165739776702,0.6485442565794933,0.4934937024101112,0.233144110740681,6.0,MANUAL,11,35.0,2.0,7.0,2.0,2.0,3.0,27,13,8,8,8,27.0,0,1.0
06-05-30_11-43-45_manual.txt,6,0.3023079307168936,0.2278886821838698,0.0913931314120438,2741.7025492299044,219.1656764946944,409.76666666666665,10982,1.5347897104597663,0.0778776874440578,0.3850608403884809,0.3036280936208978,0.1426046654924721,0.1306933810407572,0.649431952533804,0.5023263232795868,0.2317552314986642,6.0,MANUAL,11,35.0,2.0,7.0,2.0,2.0,3.0,27,13,8,8,8,27.0,0,1.0
06-05-30_11-43-45_manual.txt,6,0.2809590427191688,0.2133509980725521,0.0789406150395063,2368.139510570151,221.3136819292077,406.26666666666665,11305,1.5067505977888356,0.074366212616263,0.3475109675850878,0.2839230976761656,0.1386455374786346,0.1236964304601281,0.5801368525187149,0.4731962337642372,0.225110048476259,6.0,MANUAL,11,35.0,2.0,7.0,2.0,2.0,3.0,27,13,8,8,8,27.0,0,1.0
06-05-30_10-20-42_manual.txt,6,0.2893719532211685,0.2215217714413139,0.083738918608321,2512.0838193310237,221.38494254797703,404.6,11400,1.4087548799650538,0.0719637738382326,0.3221921071235729,0.3108957356075197,0.1507647113388935,0.1196331379737755,0.5336045598814023,0.509520247836626,0.2453958669529479,6.0,MANUAL,1,51.0,2.0,11.0,3.0,2.0,3.0,42,13,8,8,8,27.0,0,1.0
06-05-30_10-20-42_manual.txt,6,0.3376099720512989,0.2577116917763944,0.1139842927049022,3419.414796854364,218.83210624631465,405.1666666666667,11165,1.4403894756045763,0.0846293120967971,0.3927317526622385,0.3617315270003211,0.1689888439522344,0.1394010870876319,0.6660076395881314,0.5928155434677914,0.2759492976941129,6.0,MANUAL,1,51.0,2.0,11.0,3.0,2.0,3.0,42,13,8,8,8,27.0,0,1.0
06-05-30_10-20-42_manual.txt,6,0.3239351040834809,0.2442627444252681,0.1049374495725613,3148.018549727268,222.87976518214575,404.1666666666667,11552,1.406775916597248,0.0743360824341372,0.3504594459660413,0.3429132162297973,0.1685508124395486,0.1226770647204433,0.5947774656933161,0.5698375347985005,0.2762612969626398,6.0,MANUAL,1,51.0,2.0,11.0,3.0,2.0,3.0,42,13,8,8,8,27.0,0,1.0
06-05-30_10-20-42_manual.txt,6,0.3202997703452822,0.2432839013747083,0.1025953627286647,3077.7582864972146,224.20160280868632,401.1,11612,1.3850254939232889,0.0801544003868141,0.3704413779685676,0.3314417944202685,0.1688423254564182,0.1299746951489507,0.6174709885718433,0.5520096316630886,0.2749897840841945,6.0,MANUAL,1,51.0,2.0,11.0,3.0,2.0,3.0,42,13,8,8,8,27.0,0,1.0
06-05-30_10-20-42_manual.txt,6,0.3213133713028482,0.2431403600993651,0.1032457241021387,3097.2684773400606,228.7289556994467,398.6,11951,1.38537918125383,0.0754797902020993,0.3637726671470543,0.3283847181018463,0.1744752930191706,0.1263331717114935,0.6006233162958101,0.5457095581235438,0.2865917278142828,6.0,MANUAL,1,51.0,2.0,11.0,3.0,2.0,3.0,42,13,8,8,8,27.0,0,1.0
06-05-30_10-20-42_manual.txt,6,0.3221578664336251,0.2433809096083788,0.1037891505434168,3113.5707271519627,227.7218569561115,399.4,11950,1.3983973669902436,0.0732313285972302,0.363247058282705,0.3327361946358179,0.1721125859914837,0.1243229973722527,0.6140304340631425,0.5504211595129828,0.279773154190406,6.0,MANUAL,1,51.0,2.0,11.0,3.0,2.0,3.0,42,13,8,8,8,27.0,0,1.0
06-05-30_10-20-42_manual.txt,6,0.270050909112459,0.2071522326937136,0.0729299245099492,2187.8248053739685,228.80019020668,399.1666666666667,11916,1.373333314650615,0.0643226514490682,0.2945218906557837,0.2882733701497696,0.1496460216074938,0.1075023700811831,0.4952498239256016,0.473764973196249,0.2422841158725819,6.0,MANUAL,1,51.0,2.0,11.0,3.0,2.0,3.0,42,13,8,8,8,27.0,0,1.0
06-05-30_10-35-28_manual.txt,6,0.3029078624503701,0.2270417072940013,0.0917562316753081,2752.595194027569,221.16618408486795,405.4,11389,1.4114051709416684,0.0757616737146005,0.350644678326739,0.3095699226317717,0.155218363979313,0.1267355468497976,0.5932918107769471,0.5140627461714379,0.2544720462730236,6.0,MANUAL,3,38.0,2.0,7.0,3.0,2.0,3.0,38,13,8,8,8,27.0,0,1.0
06-05-30_10-35-28_manual.txt,6,0.3042000849533063,0.2260657765611811,0.0925407763781447,2776.130750567964,224.362843373376,402.8666666666667,11715,1.4125691324630754,0.0714399988850594,0.3389758021922279,0.3118039893407024,0.1567895649740901,0.1195085030425968,0.5654892074825912,0.5239412610277521,0.256299236996114,6.0,MANUAL,3,38.0,2.0,7.0,3.0,2.0,3.0,38,13,8,8,8,27.0,0,1.0
06-05-30_10-35-28_manual.txt,6,0.3069323640537735,0.2327486333351208,0.09421061645752,2826.224283109144,223.17996871800108,402.3333333333333,11449,1.41530584985094,0.07717207350901,0.3530009975433179,0.3203688289780809,0.1584367713208441,0.1288770985709086,0.5963310015350713,0.527444296074542,0.2556686284550395,6.0,MANUAL,3,38.0,2.0,7.0,3.0,2.0,3.0,38,13,8,8,8,27.0,0,1.0
06-05-30_10-35-28_manual.txt,6,0.334737331290263,0.254404031844401,0.1120528160531957,3361.47242877982,225.8964925710652,402.1666666666667,11500,1.4546846641016014,0.0826693272432304,0.4045949397461014,0.3383107266105847,0.1722134891514917,0.1396822199166215,0.6750149389339536,0.5607632413474536,0.2797271604208234,6.0,MANUAL,3,38.0,2.0,7.0,3.0,2.0,3.0,38,13,8,8,8,27.0,0,1.0
06-05-30_10-35-28_manual.txt,6,0.3250112196731969,0.2505292320504814,0.1056358141072626,3168.9687874037727,226.52521478368064,401.8666666666667,11291,1.457882543477992,0.0821935022140377,0.3990075502510247,0.3363305847854969,0.166981995926482,0.134603946511,0.6645085775894854,0.5547143673338633,0.2689523410258126,6.0,MANUAL,3,38.0,2.0,7.0,3.0,2.0,3.0,38,13,8,8,8,27.0,0,1.0
06-05-30_10-35-28_manual.txt,6,0.3479211456057269,0.2640689117392382,0.1210531586648902,3631.4737067880433,219.6153910278161,406.9,11063,1.4635660270073212,0.0857712909447314,0.4211625788590299,0.3618792320711999,0.1683142965969327,0.1431628973856979,0.7085184225170861,0.5975334539499105,0.2750820534850356,6.0,MANUAL,3,38.0,2.0,7.0,3.0,2.0,3.0,38,13,8,8,8,27.0,0,1.0
06-05-30_10-35-28_manual.txt,6,0.2606382829513266,0.1886769264813913,0.0679345790257833,2037.9694361944744,236.00548212141956,393.0333333333333,13325,1.341913562018623,0.0538195296780073,0.2505966021350528,0.2543559176482985,0.1497040263269903,0.0939500935309916,0.4353854171092934,0.4377999617501805,0.2455160241052956,6.0,MANUAL,3,38.0,2.0,7.0,3.0,2.0,3.0,38,13,8,8,8,27.0,0,1.0
06-05-30_10-41-53_manual.txt,6,0.3584019245396917,0.2566822360413813,0.1284562213878011,3853.558185412646,212.11275946942803,412.4333333333333,10712,1.4644331952839982,0.0860165424491627,0.4184482147447158,0.3538804381531257,0.1577963053341551,0.145675141007778,0.7121972547371143,0.6060466152431621,0.2671264817406439,6.0,MANUAL,4,45.0,2.0,9.0,3.0,2.0,3.0,41,13,8,8,8,27.0,0,1.0
06-05-30_10-41-53_manual.txt,6,0.3033229787079856,0.2330066401001791,0.0920078963421631,2760.1448823685528,217.18731206302465,407.26666666666665,10943,1.4429081943737914,0.0783167429852664,0.3592440309439699,0.3274241238961131,0.1486974364779426,0.1321171391866183,0.5951068212385254,0.5360186532424059,0.2417660439075371,6.0,MANUAL,4,45.0,2.0,9.0,3.0,2.0,3.0,41,13,8,8,8,27.0,0,1.0
06-05-30_10-41-53_manual.txt,6,0.2910502417275959,0.2185952799018035,0.0847130669785913,2541.307296290761,226.8290883064131,399.4666666666666,11763,1.402531434142419,0.071138342181927,0.3161637472022143,0.3033290626537342,0.1556106309627438,0.1188847397395694,0.5342517550888182,0.5053281111168786,0.2548878903418478,6.0,MANUAL,4,45.0,2.0,9.0,3.0,2.0,3.0,41,13,8,8,8,27.0,0,1.0
06-05-30_10-41-53_manual.txt,6,0.2910022965468118,0.2217342823549349,0.0846851594341664,2540.4700978655574,225.10359942826693,403.2,11517,1.403975865934724,0.0658249229277361,0.3222720277821009,0.3124864392384153,0.1523381942029066,0.1078756443540593,0.5268094685461181,0.5169474604054692,0.2500177333616484,6.0,MANUAL,4,45.0,2.0,9.0,3.0,2.0,3.0,41,13,8,8,8,27.0,0,1.0
06-05-30_10-41-53_manual.txt,6,0.273225193191961,0.2095217825339983,0.0746544946779403,2239.560185843532,229.75713802975187,397.8666666666667,11943,1.365116042219007,0.0657284344588354,0.3037898397480262,0.2874682658711059,0.150432797151963,0.1071863072889043,0.4916668715303687,0.4765048974337753,0.2437427792730314,6.0,MANUAL,4,45.0,2.0,9.0,3.0,2.0,3.0,41,13,8,8,8,27.0,0,1.0
06-05-30_10-41-53_manual.txt,6,0.2649398863786254,0.2019466302362701,0.0701954832437604,2105.794301829568,226.3819218862677,400.4333333333333,11793,1.3682060327632437,0.0647857803328057,0.290687007839208,0.2806637536668885,0.1426741274088385,0.1049891708281964,0.4902713807326482,0.4611141593936397,0.2321331957176219,6.0,MANUAL,4,45.0,2.0,9.0,3.0,2.0,3.0,41,13,8,8,8,27.0,0,1.0
06-05-30_10-41-53_manual.txt,6,0.3897919034715698,0.2916529095066882,0.1519427927717486,4558.131840359688,211.98405655740467,412.6,10745,1.466454079722436,0.09857959560219,0.4889990421325761,0.3947919380247708,0.1774192759455643,0.1649401476138851,0.8060187791736584,0.657902998152515,0.2898266021542387,6.0,MANUAL,4,45.0,2.0,9.0,3.0,2.0,3.0,41,13,8,8,8,27.0,0,1.0
06-05-30_10-28-01_manual.txt,6,0.2545328410474295,0.1927300539131993,0.0647891268092363,1943.6090151502804,223.09872507890665,403.8333333333333,11446,1.458045440581954,0.0609274013133127,0.3006814759738365,0.2648005909566681,0.128813785224447,0.1030322778877949,0.5090302490661401,0.4403988204468754,0.2089560519253993,6.0,MANUAL,2,39.0,2.0,7.0,3.0,2.0,3.0,45,13,8,8,8,27.0,0,1.0
06-05-30_10-28-01_manual.txt,6,0.2787203053006594,0.2109405666231728,0.0776875981734985,2330.550257606784,218.76737799664448,407.7,11191,1.4552455255621493,0.0658134639341454,0.3316407338477135,0.2897740418874108,0.1361841001942182,0.11148841669106,0.5435057958172285,0.480590258302586,0.2222176609472177,6.0,MANUAL,2,39.0,2.0,7.0,3.0,2.0,3.0,45,13,8,8,8,27.0,0,1.0
06-05-30_10-28-01_manual.txt,6,0.2514572337741369,0.1904922110407003,0.0632328481789469,1896.9222125202289,226.953871072964,402.73333333333335,11638,1.490670297765282,0.0599906966297142,0.2994709506847363,0.2567158823627409,0.1288131119434415,0.1009228059276044,0.4966077209924039,0.4272574129097289,0.2092106971730015,6.0,MANUAL,2,39.0,2.0,7.0,3.0,2.0,3.0,45,13,8,8,8,27.0,0,1.0
06-05-30_10-28-01_manual.txt,6,0.2733364050980338,0.1936595210311396,0.0747152808612785,2241.383710557494,220.74644525442255,404.06666666666666,11628,1.5187450343912012,0.0635861660691743,0.3109648342790022,0.2575044626152938,0.130070033252048,0.1119020764186057,0.5646662916776306,0.4465768725332112,0.212296631946345,6.0,MANUAL,2,39.0,2.0,7.0,3.0,2.0,3.0,45,13,8,8,8,27.0,0,1.0
06-05-30_10-28-01_manual.txt,6,0.5354431264974446,0.3226173910162144,0.2867088986766476,8600.980251400753,201.9835243205316,423.5,10967,1.6198921504739376,0.1073814050261738,0.5677299443890137,0.4292406127685765,0.1826670242676984,0.2092880752350908,1.1655557910778345,0.817868963189561,0.3248626127910622,6.0,MANUAL,2,39.0,2.0,7.0,3.0,2.0,3.0,45,13,8,8,8,27.0,0,1.0
06-05-30_10-28-01_manual.txt,6,0.2833984493153735,0.2144697712806004,0.0803173583196356,2409.44043223075,221.44242516558492,407.1666666666667,11200,1.5089475774011476,0.0733224127418474,0.3551919004854042,0.2830655166887219,0.1381949217136541,0.1218067098610965,0.5982186703522734,0.4681026871287009,0.2244656983750126,6.0,MANUAL,2,39.0,2.0,7.0,3.0,2.0,3.0,45,13,8,8,8,27.0,0,1.0
06-05-30_11-48-51_manual.txt,6,0.3557525702820281,0.2674222528904762,0.1265641100659382,3796.7967378680814,219.2700977049556,409.73333333333335,10902,1.5242438174187012,0.0867902355111433,0.4428994242538692,0.3652543443699169,0.1660636520823251,0.1431575192899093,0.7469185738702147,0.6062696041133916,0.2714263361127298,6.0,MANUAL,12,32.0,2.0,7.0,2.0,2.0,3.0,31,13,8,8,8,27.0,0,1.0
06-05-30_11-48-51_manual.txt,6,0.3679612731722566,0.2732843770934974,0.1354000118882776,4061.86495663644,217.4585502443169,411.4333333333333,10976,1.529506799203362,0.0894450158421519,0.4574712935913981,0.3657903667184444,0.1683301283734814,0.1529677872995926,0.7660005487353714,0.6192582207843725,0.2763870148059533,6.0,MANUAL,12,32.0,2.0,7.0,2.0,2.0,3.0,31,13,8,8,8,27.0,0,1.0
06-05-30_11-48-51_manual.txt,6,0.3354654394833176,0.2514171349962089,0.1125408124481503,3376.111832632063,222.068059210325,407.6666666666667,11152,1.518621082316064,0.0804178125560348,0.4085920603699323,0.3393285517456925,0.1615748059728214,0.135230204526663,0.6778281121996607,0.5664329496584278,0.2634679957879037,6.0,MANUAL,12,32.0,2.0,7.0,2.0,2.0,3.0,31,13,8,8,8,27.0,0,1.0
06-05-30_11-48-51_manual.txt,6,0.3490557265204868,0.2623541302797101,0.1218439616821342,3655.197006502346,219.95183629724488,409.9,10973,1.5356429283920028,0.0845469730179876,0.4455611334441658,0.347112207055841,0.1637390280189231,0.1406253942195287,0.7399293957149358,0.5835485317509937,0.2672137437905068,6.0,MANUAL,12,32.0,2.0,7.0,2.0,2.0,3.0,31,13,8,8,8,27.0,0,1.0
06-05-30_11-48-51_manual.txt,6,0.3050454371606836,0.2281936481043784,0.093055820593239,2791.5815619765785,228.2359791506747,402.26666666666665,11886,1.4898766620003885,0.0730472764607229,0.3516763047218219,0.3074350608379128,0.1583632828989202,0.1241523258650676,0.599581677852383,0.5106576051375958,0.2572147890863974,6.0,MANUAL,12,32.0,2.0,7.0,2.0,2.0,3.0,31,13,8,8,8,27.0,0,1.0
06-05-30_11-48-51_manual.txt,6,0.3469087106818216,0.257946470701298,0.1203496652024305,3610.3696064077135,222.2018671356412,407.2,11358,1.5189101987977425,0.0828346051967651,0.4131104258442712,0.3497150634564093,0.165207232188465,0.1370667161836809,0.6835838701391597,0.5839919784589113,0.2700944054813273,6.0,MANUAL,12,32.0,2.0,7.0,2.0,2.0,3.0,31,13,8,8,8,27.0,0,1.0
06-05-30_11-54-00_manual.txt,6,0.3357261467790476,0.2464737820531294,0.1127158028245341,3381.3613689331987,219.90015673605728,409.76666666666665,11199,1.543656874759489,0.0820537819873628,0.4057662023429765,0.3327109205317116,0.1568027963090393,0.1383170529629674,0.7003186813263714,0.5625723134093512,0.2563911426680304,6.0,MANUAL,13,37.0,3.0,8.0,2.0,3.0,3.0,32,13,8,8,8,27.0,0,1.0
06-05-30_11-54-00_manual.txt,6,0.3623203470824583,0.2686535764732178,0.1312804099236172,3938.281017298592,216.60344609472148,410.6,10791,1.514571414819784,0.0892989338989084,0.4438262859533012,0.3663927321350363,0.1655591965290082,0.1521970068945479,0.7567012493204931,0.6160967451988731,0.2714052325256533,6.0,MANUAL,13,37.0,3.0,8.0,2.0,3.0,3.0,32,13,8,8,8,27.0,0,1.0
06-05-30_11-54-00_manual.txt,6,0.3255802926992584,0.2430681559789386,0.1060060605294857,3180.0758098240435,217.4751618025568,409.5333333333333,10935,1.5010701637626374,0.0809371398283089,0.3963629382072279,0.3285368558674986,0.1543186162235295,0.1327020033871663,0.6655707707534774,0.5549215102557793,0.2544720876553946,6.0,MANUAL,13,37.0,3.0,8.0,2.0,3.0,3.0,32,13,8,8,8,27.0,0,1.0
06-05-30_11-54-00_manual.txt,6,0.3762255222269268,0.2778304745670769,0.1415503619203211,4246.3693072477145,212.0758859806333,412.1,10711,1.477013768921016,0.0888005696596161,0.4628761209596833,0.3764648007865586,0.1692514422193265,0.1495806356721781,0.7779353374219471,0.6332050075871296,0.2805017708376993,6.0,MANUAL,13,37.0,3.0,8.0,2.0,3.0,3.0,32,13,8,8,8,27.0,0,1.0
06-05-30_11-54-00_manual.txt,6,0.3310063907944406,0.2501890114949865,0.1095688830428633,3286.9569224028587,216.31907413637845,410.3666666666667,10748,1.477988161295253,0.0816829081874044,0.405149605528864,0.3436714241556566,0.1561820024720955,0.1360308510883622,0.6756191858711551,0.5694378682128496,0.2554378749859619,6.0,MANUAL,13,37.0,3.0,8.0,2.0,3.0,3.0,32,13,8,8,8,27.0,0,1.0
06-05-30_11-54-00_manual.txt,6,0.3087482458187299,0.2315303482215492,0.0953286569180401,2859.764378884286,219.76878422722905,406.9333333333333,11261,1.4625009758829663,0.0704417947179108,0.3506639796129782,0.3239718990241745,0.1516544376196833,0.1201105601594377,0.589374266498167,0.5378859605794474,0.2480678676523524,6.0,MANUAL,13,37.0,3.0,8.0,2.0,3.0,3.0,32,13,8,8,8,27.0,0,1.0
06-05-30_11-54-00_manual.txt,6,0.2969483985280899,0.2246372774733599,0.0881812907647561,2645.35054165192,223.67931170073595,403.8,11278,1.4316888827763077,0.0721324649949932,0.3594810502015178,0.300749842809112,0.1497974648243267,0.120261191384126,0.6023586172748747,0.4992090634617392,0.2446049230481225,6.0,MANUAL,13,37.0,3.0,8.0,2.0,3.0,3.0,32,13,8,8,8,27.0,0,1.0
