filename,patient,rmse,mav,var,energy,mnf,mdf,zc,fr,mav_arr_0,mav_arr_1,mav_arr_2,mav_arr_3,std_0,std_1,std_2,std_3,ID,Task,File_number,STAI_Total,Fatigue,Stress,Mental_Demand,Physical_Demand,Frustration,NASA_Total,PSS,NARS_S1,NARS_S2,NARS_S3,Age,Sex,Experience
08-06-01_10-34-09_manual.txt,8,0.3515668975199827,0.247134006218704,0.1236034035452775,3707.978502954782,199.21042272970024,424.3666666666667,10638,1.4130026686764654,0.0872495615367645,0.387894086850609,0.3577935877641133,0.1442424448829399,0.1535686293190573,0.6777474216865774,0.6199840970657121,0.2456582047805721,8.0,MANUAL,7,51.0,2.0,11.0,2.0,3.0,1.0,23,16,9,9,9,26.0,1,1.0
08-06-01_10-34-09_manual.txt,8,0.3436599562994377,0.2490552002531307,0.1181061024338125,3543.064966911943,198.5548641802477,424.4666666666666,10227,1.4954209890225372,0.0918156442567494,0.3922327401006517,0.3636962152477212,0.1440996722072396,0.1531990753042984,0.6700065313603141,0.6127737302637382,0.2429126020851403,8.0,MANUAL,7,51.0,2.0,11.0,2.0,3.0,1.0,23,16,9,9,9,26.0,1,1.0
08-06-01_10-34-09_manual.txt,8,0.2988885781719932,0.2274049186508608,0.0893373600736781,2680.031464850272,205.2606468070045,420.4666666666666,10432,1.550683747221265,0.0794230542498909,0.3349582390013015,0.3402811227256129,0.1363714681153291,0.1284957825725997,0.5441930572955681,0.5600806352050104,0.2235485517999567,8.0,MANUAL,7,51.0,2.0,11.0,2.0,3.0,1.0,23,16,9,9,9,26.0,1,1.0
08-06-01_10-34-09_manual.txt,8,0.2840030345411669,0.2171784913095783,0.0806604123090015,2419.731708857737,203.8543857294901,421.3,10532,1.5809587217414636,0.0775620721469068,0.3046595853812753,0.3314376068305973,0.1274843076378443,0.1274295502667891,0.5070631466713053,0.5442454065470291,0.2091836682529096,8.0,MANUAL,7,51.0,2.0,11.0,2.0,3.0,1.0,23,16,9,9,9,26.0,1,1.0
08-06-01_10-34-09_manual.txt,8,0.3313006497620802,0.2433981614372054,0.1097637793254207,3292.803615983296,199.8928657661585,425.0333333333333,10437,1.6520978395450587,0.0923931673830151,0.3526964628055135,0.3718117474931284,0.1356637344457198,0.1567979049534922,0.6006613323295563,0.6239249130682671,0.2260380258751758,8.0,MANUAL,7,51.0,2.0,11.0,2.0,3.0,1.0,23,16,9,9,9,26.0,1,1.0
08-06-01_10-34-09_manual.txt,8,0.2899844683227142,0.2104677804233898,0.084093794994907,2522.729756052217,205.22954693151868,424.5333333333333,10866,1.802025343275319,0.0767508713929587,0.3016873979914331,0.3199309134205647,0.1206985301331449,0.1282147655127042,0.5038416063505798,0.5468905098055429,0.2011579093128193,8.0,MANUAL,7,51.0,2.0,11.0,2.0,3.0,1.0,23,16,9,9,9,26.0,1,1.0
08-06-01_10-34-09_manual.txt,8,0.2063738705607585,0.1275548216072397,0.0425915941700343,1277.7052335068618,220.29054476644583,412.06666666666666,14956,1.6407261131727664,0.0393886335080887,0.1753071245442029,0.176707748431018,0.0911314915993714,0.0825967383338221,0.3513941894928053,0.3475331682299021,0.1564056155085429,8.0,MANUAL,7,51.0,2.0,11.0,2.0,3.0,1.0,23,16,9,9,9,26.0,1,1.0
08-06-01_10-14-34_manual.txt,8,0.3366154542713822,0.2341604859405363,0.1133137411790349,3399.2989216298706,200.94424757529973,423.76666666666665,10627,1.4623483398921535,0.0793369468986556,0.3793299615516304,0.333617022946412,0.1371162059430475,0.1414963867048284,0.6552605233236732,0.5848889776788997,0.2334399398543053,8.0,MANUAL,4,36.0,1.0,9.0,3.0,3.0,1.0,55,16,9,9,9,26.0,1,1.0
08-06-01_10-14-34_manual.txt,8,0.3883737605931494,0.2874764817217655,0.1508392058907946,4525.025337517948,199.44359202469,423.7,10042,1.43372657774855,0.104488488303027,0.467185254278224,0.4144451315022914,0.1607015785070516,0.1745826424422435,0.780986452423294,0.6944642793233637,0.2692312814890554,8.0,MANUAL,4,36.0,1.0,9.0,3.0,3.0,1.0,55,16,9,9,9,26.0,1,1.0
08-06-01_10-14-34_manual.txt,8,0.2539276413252999,0.1954967755491547,0.0644813964089104,1934.377410870904,203.8239541716437,421.2,10298,1.5405677049796276,0.0676025509288684,0.2880378975514887,0.2943056946747159,0.1145606569188373,0.1097613620833759,0.4632238599899314,0.4793010901395991,0.1886677904350787,8.0,MANUAL,4,36.0,1.0,9.0,3.0,3.0,1.0,55,16,9,9,9,26.0,1,1.0
08-06-01_10-14-34_manual.txt,8,0.2792672742164886,0.2133082658282973,0.0779928102086477,2339.706313449223,201.65034058787933,424.4333333333333,10258,1.6096463655197373,0.0755711726670262,0.3034186512770966,0.326052154492206,0.1218554019202784,0.1228177146573324,0.4913569653937764,0.5334805074326204,0.2013632037827426,8.0,MANUAL,4,36.0,1.0,9.0,3.0,3.0,1.0,55,16,9,9,9,26.0,1,1.0
08-06-01_10-14-34_manual.txt,8,0.3432529197669179,0.2549931000233404,0.1178264944783301,3534.677007855426,197.53556458175652,425.23333333333335,10183,1.6226769312379803,0.0958142185065114,0.3810699871148849,0.3840709903330104,0.1438801736678548,0.1602903874974941,0.6434854435598418,0.6385229024956847,0.2399144854904323,8.0,MANUAL,4,36.0,1.0,9.0,3.0,3.0,1.0,55,16,9,9,9,26.0,1,1.0
08-06-01_10-14-34_manual.txt,8,0.3169372969545629,0.2335464373533646,0.1004525986208188,3013.4775060259435,203.98627866747836,423.23333333333335,10812,1.7448386150492192,0.0862351079396492,0.3423605844023796,0.3537620160250996,0.1340895113391021,0.1460450228425814,0.5701096066482366,0.5943796716704197,0.2222153614640183,8.0,MANUAL,4,36.0,1.0,9.0,3.0,3.0,1.0,55,16,9,9,9,26.0,1,1.0
08-06-01_10-14-34_manual.txt,8,0.2043584104574994,0.1389016006407367,0.0417637520497841,1252.8707977414742,220.1887724099652,408.06666666666666,12648,1.4705480027436644,0.0410944114783622,0.1983874376735436,0.1916159222982676,0.0992574365005954,0.0771092300627095,0.3557695963167642,0.3463680251689639,0.1665692776801497,8.0,MANUAL,4,36.0,1.0,9.0,3.0,3.0,1.0,55,16,9,9,9,26.0,1,1.0
08-06-01_11-19-53_manual.txt,8,0.3762169863702804,0.2655245600503919,0.1415439389648346,4246.176625006074,198.16452565560232,424.6666666666667,10590,1.4216824744959466,0.0940829455421735,0.4304749739409348,0.3825345332044232,0.1528913538534766,0.1590673836870081,0.752279927738033,0.6584413357340729,0.259469663342952,8.0,MANUAL,10,39.0,2.0,7.0,2.0,3.0,1.0,43,16,9,9,9,26.0,1,1.0
08-06-01_11-19-53_manual.txt,8,0.3427084738046629,0.2465099873968753,0.1174530131179585,3523.4729405256394,196.11489416936672,424.73333333333335,10153,1.4586279962496498,0.0891622786391054,0.3790584024076159,0.3659854273067471,0.1406742822543135,0.155160581321124,0.655482426270652,0.6226790812375214,0.2377666291672888,8.0,MANUAL,10,39.0,2.0,7.0,2.0,3.0,1.0,43,16,9,9,9,26.0,1,1.0
08-06-01_11-19-53_manual.txt,8,0.2618065604906991,0.1987248329100717,0.0685449599479683,2056.2802534791035,202.55361750193651,423.76666666666665,10325,1.635877700012868,0.0684917718064985,0.2728036191472285,0.3071624819040952,0.114710544232952,0.1130438915760461,0.4519333372639652,0.5076979860070219,0.1886798677989243,8.0,MANUAL,10,39.0,2.0,7.0,2.0,3.0,1.0,43,16,9,9,9,26.0,1,1.0
08-06-01_11-19-53_manual.txt,8,0.2499810726823641,0.1906415919980368,0.0624926197867516,1874.7161009827628,204.06392276330985,424.3,10396,1.670522936411668,0.0652486755390103,0.25603958245226,0.2976837948808374,0.1105628133234206,0.1054194392239965,0.4191962872136951,0.4901063772335775,0.1817885814954471,8.0,MANUAL,10,39.0,2.0,7.0,2.0,3.0,1.0,43,16,9,9,9,26.0,1,1.0
08-06-01_11-19-53_manual.txt,8,0.3154543808948136,0.2282795643411553,0.099514783585183,2985.3439927719046,196.66641849166965,427.4,10282,1.6555467949484448,0.0851112375813701,0.3319507407294242,0.3485567616913969,0.1267783810219113,0.1450593128556878,0.5606188608067171,0.5941254278470337,0.2137968983601595,8.0,MANUAL,10,39.0,2.0,7.0,2.0,3.0,1.0,43,16,9,9,9,26.0,1,1.0
08-06-01_11-19-53_manual.txt,8,0.2911499271285258,0.2119701821006684,0.0847711057704715,2543.0484020083763,202.94532415372015,423.6666666666667,10849,1.717447930112258,0.0789816256761836,0.3109802366893429,0.3182032774727008,0.1223337790363077,0.1343300711785557,0.5234633312275145,0.5375630949768501,0.2038046695000476,8.0,MANUAL,10,39.0,2.0,7.0,2.0,3.0,1.0,43,16,9,9,9,26.0,1,1.0
08-06-01_11-19-53_manual.txt,8,0.2865033073653515,0.188329805769665,0.0820868813606637,2462.5243539385524,202.35123950867325,424.2,12039,1.6851153602046154,0.0659881069777059,0.2795915565319037,0.2754636002995386,0.1126029574269495,0.1236076198329589,0.5126454945462368,0.5062367621386874,0.1925564882311548,8.0,MANUAL,10,39.0,2.0,7.0,2.0,3.0,1.0,43,16,9,9,9,26.0,1,1.0
08-06-01_11-52-26_manual.txt,8,0.3182069145213799,0.2194388595110387,0.1012590157497417,3037.669213476503,202.43373065624576,424.56666666666666,11115,1.5422177455436443,0.077863608710794,0.3522958078674076,0.315146607989712,0.1279089892597694,0.1368788413595383,0.6115504390740517,0.5573352989603924,0.2171542455970683,8.0,MANUAL,15,39.0,2.0,10.0,3.0,2.0,4.0,18,16,9,9,9,26.0,1,1.0
08-06-01_11-52-26_manual.txt,8,0.2850690906983651,0.2060021442217081,0.0812670953747718,2437.9315941477817,200.70713152549385,423.5333333333333,10531,1.5608561439751187,0.0766655613200312,0.3131670511674167,0.303992102805267,0.120632536939163,0.1297639678379175,0.53109930670504,0.5162555435652469,0.2028616281714599,8.0,MANUAL,15,39.0,2.0,10.0,3.0,2.0,4.0,18,16,9,9,9,26.0,1,1.0
08-06-01_11-52-26_manual.txt,8,0.2556670308106982,0.1961651981592646,0.0653678095705442,1960.968919306756,207.47308098791547,419.3666666666667,10466,1.605609064218839,0.0662003929006477,0.2821623397810027,0.2953794659708169,0.1172465051313675,0.1047419123336548,0.4599471529986468,0.4830928857822588,0.1918345455111703,8.0,MANUAL,15,39.0,2.0,10.0,3.0,2.0,4.0,18,16,9,9,9,26.0,1,1.0
08-06-01_11-52-26_manual.txt,8,0.2727234688956205,0.2012260681883818,0.0743805698387884,2231.342714593816,204.26366130310444,422.0333333333333,10459,1.6387272683520953,0.0706985077090266,0.293190275758985,0.3040520028541554,0.1170749441777529,0.1187382227524162,0.4865064805760535,0.5124746045559321,0.1951621100714877,8.0,MANUAL,15,39.0,2.0,10.0,3.0,2.0,4.0,18,16,9,9,9,26.0,1,1.0
08-06-01_11-52-26_manual.txt,8,0.250011665286084,0.1848376489407482,0.0625079163763334,1875.174983373627,205.1029939469904,422.3333333333333,10734,1.7065350208346242,0.0669808783180626,0.2634527222649573,0.2819705619690339,0.1072165527418868,0.1115213491728752,0.4429204563983829,0.4754456050004489,0.1767144613739804,8.0,MANUAL,15,39.0,2.0,10.0,3.0,2.0,4.0,18,16,9,9,9,26.0,1,1.0
08-06-01_11-52-26_manual.txt,8,0.4039456398559603,0.2312673189375436,0.1631775192092815,4895.162398759236,202.23052711621517,421.3333333333333,11156,1.555690919389634,0.0812664111278486,0.3635193780488198,0.3387436614763167,0.13109790097568,0.1575931148379443,0.7632409127785829,0.6659754215699325,0.2531599995431935,8.0,MANUAL,15,39.0,2.0,10.0,3.0,2.0,4.0,18,16,9,9,9,26.0,1,1.0
08-06-01_11-52-26_manual.txt,8,0.4257902907057508,0.2203214352919301,0.181303415106458,5438.921149778634,200.46968689744065,422.1,11396,1.4534577885449178,0.0660929539679266,0.3662469101963709,0.3054291046640859,0.1274093718303839,0.1404593395283314,0.8365321929132392,0.6585417599954826,0.2534069119037321,8.0,MANUAL,15,39.0,2.0,10.0,3.0,2.0,4.0,18,16,9,9,9,26.0,1,1.0
08-06-01_11-45-44_manual.txt,8,0.3591023154391701,0.2210711983634943,0.1289587715794926,3868.634188613198,196.86389061889284,425.23333333333335,10225,1.4862436223175484,0.0796921768538776,0.3561650264498228,0.3181294763472242,0.1234677131183479,0.1525748302617451,0.6842317227412517,0.5987246648209481,0.2336204575047286,8.0,MANUAL,14,43.0,2.0,10.0,1.0,2.0,3.0,30,16,9,9,9,26.0,1,1.0
08-06-01_11-45-44_manual.txt,8,0.3565580525261013,0.2571000221227509,0.127137882750631,3814.0093446361807,195.35068089018463,427.4,9995,1.5015984864305718,0.0968452351596043,0.3921251746341104,0.3856142873925952,0.1422139340160618,0.1636033471289141,0.6788063451985336,0.6553864251069287,0.2430831321729519,8.0,MANUAL,14,43.0,2.0,10.0,1.0,2.0,3.0,30,16,9,9,9,26.0,1,1.0
08-06-01_11-45-44_manual.txt,8,0.2882925043374272,0.2200111795025923,0.083115338568431,2493.377041714364,202.215082987197,423.8,10226,1.6153495015963268,0.0770852855941945,0.3075151857489925,0.3396447086560963,0.1249838015624054,0.1284085019480056,0.4994962516724449,0.5581287575127564,0.2065392189344585,8.0,MANUAL,14,43.0,2.0,10.0,1.0,2.0,3.0,30,16,9,9,9,26.0,1,1.0
08-06-01_11-45-44_manual.txt,8,0.2878511199575656,0.2191151195840273,0.0828610292951346,2485.7480178247447,201.82024393875665,423.9333333333333,10277,1.6400725078800138,0.0759820060656368,0.3065555027687195,0.3373733545801121,0.1253079168809772,0.1256581527953796,0.5040340028987372,0.5572062389596669,0.2069368912723012,8.0,MANUAL,14,43.0,2.0,10.0,1.0,2.0,3.0,30,16,9,9,9,26.0,1,1.0
08-06-01_11-45-44_manual.txt,8,0.3064490144796959,0.2225750993418713,0.0939141289465417,2817.3299542673067,198.33125571229044,426.56666666666666,10249,1.631927476282373,0.0805539293718445,0.3202866395020889,0.3419807350088122,0.1240480846763608,0.1388469137802031,0.5363449365876407,0.5822568796394043,0.2095320975510735,8.0,MANUAL,14,43.0,2.0,10.0,1.0,2.0,3.0,30,16,9,9,9,26.0,1,1.0
08-06-01_11-45-44_manual.txt,8,0.2733376811562243,0.1974629885669693,0.0747159784724774,2241.404638195852,200.30830584368204,426.3333333333333,10714,1.6766282754654558,0.0674962207925772,0.2822730077030939,0.3034208919876889,0.1103721959061045,0.113748431464315,0.4752356148266758,0.5205374178821178,0.1850942133910153,8.0,MANUAL,14,43.0,2.0,10.0,1.0,2.0,3.0,30,16,9,9,9,26.0,1,1.0
08-06-01_11-45-44_manual.txt,8,0.1957299661303361,0.1366932955496285,0.0383114966912722,1149.3065892414756,212.2164197797756,418.1,12070,1.591685728407716,0.0419830491776516,0.185399605768567,0.203778163862298,0.086225801372694,0.075888158696743,0.3264664589727793,0.3621170499943991,0.1428780054581339,8.0,MANUAL,14,43.0,2.0,10.0,1.0,2.0,3.0,30,16,9,9,9,26.0,1,1.0
08-06-01_10-01-38_manual.txt,8,0.3150564365460587,0.2220297196734404,0.0992638670046675,2977.8167462730225,197.1579764162759,426.3333333333333,10050,1.4190198761240451,0.0796339800853806,0.3690057608412724,0.3185442241928012,0.1217061756569748,0.1394829574227451,0.6373835379620191,0.5490896671373263,0.2099220468656867,8.0,MANUAL,2,51.0,2.0,13.0,4.0,5.0,1.0,71,16,9,9,9,26.0,1,1.0
08-06-01_10-01-38_manual.txt,8,0.3192372705909452,0.2371553740613639,0.1019158321287606,3057.3730480306904,197.72593442134797,425.4,9865,1.4153209304358425,0.0848544833076861,0.3928785084330722,0.3394410760752043,0.1309588818461816,0.1388049877055843,0.6541494561819748,0.5650060122529575,0.2201511159134313,8.0,MANUAL,2,51.0,2.0,13.0,4.0,5.0,1.0,71,16,9,9,9,26.0,1,1.0
08-06-01_10-01-38_manual.txt,8,0.3324039914515827,0.2452513851570124,0.1104960967361684,3314.772405988316,197.28931718455067,424.9666666666666,9949,1.3974893543277598,0.0825937933005801,0.3964292954214617,0.3540900509187497,0.1383354031183231,0.1363656179078245,0.6707088646955139,0.5911564551789426,0.232195442019738,8.0,MANUAL,2,51.0,2.0,13.0,4.0,5.0,1.0,71,16,9,9,9,26.0,1,1.0
08-06-01_10-01-38_manual.txt,8,0.30198081566268,0.2284175756653744,0.0911954528767267,2735.7723908489256,200.06411425377357,423.23333333333335,10086,1.4788507635985295,0.0778578662394215,0.3534554753902597,0.3391280664404832,0.1291481427124075,0.1287647930199759,0.5853554984068704,0.5581428720682352,0.2146929156031836,8.0,MANUAL,2,51.0,2.0,13.0,4.0,5.0,1.0,71,16,9,9,9,26.0,1,1.0
08-06-01_10-01-38_manual.txt,8,0.3197789222881527,0.2332254061285571,0.1022619678720348,3067.7567741931725,197.7766915810457,424.2,10128,1.5242638654723042,0.0866869278580093,0.3620462600847494,0.3494341648677767,0.1311030551334525,0.1467372901884364,0.6016827817269667,0.5861085818960424,0.2216672725802789,8.0,MANUAL,2,51.0,2.0,13.0,4.0,5.0,1.0,71,16,9,9,9,26.0,1,1.0
08-06-01_10-01-38_manual.txt,8,0.3089052945260829,0.2282302275399511,0.0954256618416407,2862.6744295873814,197.8636704468805,426.4666666666666,10249,1.6537754919103564,0.0879442949868615,0.3354257454037718,0.3471074198310596,0.1273488678736062,0.1474830596836166,0.5535961629505946,0.5842558383336578,0.2125069542058529,8.0,MANUAL,2,51.0,2.0,13.0,4.0,5.0,1.0,71,16,9,9,9,26.0,1,1.0
08-06-01_10-01-38_manual.txt,8,0.2536756988071236,0.1730189224017162,0.0643535052821252,1930.5408049584755,207.0237715282165,419.3,11452,1.638629472601223,0.0607174705765519,0.2576187251310987,0.2535105112988167,0.1060510288707268,0.1077889393903786,0.4589142913866242,0.4516298887261263,0.1812188354423008,8.0,MANUAL,2,51.0,2.0,13.0,4.0,5.0,1.0,71,16,9,9,9,26.0,1,1.0
08-06-01_10-27-37_manual.txt,8,0.37579145141351,0.2673463460392952,0.1412239224195531,4236.576448664174,197.23200221484396,424.8,10133,1.3693485556787317,0.0948316865769637,0.44130264759939,0.3840670724644711,0.149872501196578,0.1665798936709501,0.7494549574567682,0.658154868642651,0.2568588572444848,8.0,MANUAL,6,36.0,1.0,7.0,3.0,2.0,1.0,22,16,9,9,9,26.0,1,1.0
08-06-01_10-27-37_manual.txt,8,0.3242401856687907,0.2361068836745889,0.1051352025092821,3153.950940075956,197.0134781825002,425.0333333333333,10028,1.4453317703511284,0.0870643068970308,0.3794340078382169,0.3439172406376158,0.1328827906149303,0.1475317197172025,0.6454945697744723,0.5808541113822437,0.2243044193451823,8.0,MANUAL,6,36.0,1.0,7.0,3.0,2.0,1.0,22,16,9,9,9,26.0,1,1.0
08-06-01_10-27-37_manual.txt,8,0.2674811388637921,0.2039961372962326,0.0715485445993579,2146.384789436138,202.48721178142816,422.4333333333333,10349,1.5289733088335289,0.0705194076839482,0.2928958763023377,0.3114163575450699,0.1181808216810163,0.1164113851542185,0.4832747245105077,0.5088095406341889,0.1963812291082084,8.0,MANUAL,6,36.0,1.0,7.0,3.0,2.0,1.0,22,16,9,9,9,26.0,1,1.0
08-06-01_10-27-37_manual.txt,8,0.2787244643098026,0.2111492246488417,0.0776899166686753,2330.6198101435925,200.1449232252629,423.9666666666666,10211,1.564268206705491,0.0755709289063423,0.299007739660574,0.3242143263333353,0.1218469047367074,0.1261298619703663,0.4978308209247667,0.5332068472559833,0.2031047016788593,8.0,MANUAL,6,36.0,1.0,7.0,3.0,2.0,1.0,22,16,9,9,9,26.0,1,1.0
08-06-01_10-27-37_manual.txt,8,0.3571610695456544,0.265311784105091,0.1275682818750583,3826.920887969874,198.11321126413367,425.23333333333335,10102,1.584875304915454,0.0957559810401131,0.4018522746101656,0.3981271121925694,0.1468415385137767,0.1589292369122815,0.661730206677802,0.6635890753997944,0.2450167725691538,8.0,MANUAL,6,36.0,1.0,7.0,3.0,2.0,1.0,22,16,9,9,9,26.0,1,1.0
08-06-01_10-27-37_manual.txt,8,0.2948147636236919,0.2143174911721165,0.0869186421385646,2607.472345514801,201.922001862398,425.5,10580,1.7319467568737663,0.0789967467253097,0.3068198040639263,0.3283865685150503,0.1213423649987286,0.1330144149070987,0.5193449116738523,0.5578211832466422,0.2038925341181487,8.0,MANUAL,6,36.0,1.0,7.0,3.0,2.0,1.0,22,16,9,9,9,26.0,1,1.0
08-06-01_10-27-37_manual.txt,8,0.2260775613118927,0.1406160502497311,0.0511127674876488,1533.3319118619777,209.41608725800975,415.9666666666666,12598,1.5546919809534272,0.0440024093896986,0.2003794408164026,0.2005763432983132,0.092367604889235,0.0861781419229689,0.3863662114809578,0.3863001255966259,0.1619207240093648,8.0,MANUAL,6,36.0,1.0,7.0,3.0,2.0,1.0,22,16,9,9,9,26.0,1,1.0
08-06-01_11-27-02_manual.txt,8,0.3657434965485401,0.2554652988302198,0.1337727643596973,4013.04915802656,202.96235928389876,421.6333333333333,10670,1.4732747634870909,0.0887415547140441,0.4262986970034166,0.3616441452319381,0.1473034990967585,0.1558982037045231,0.745307145331491,0.6269067080882169,0.2515248472477067,8.0,MANUAL,11,39.0,2.0,10.0,2.0,2.0,2.0,34,16,9,9,9,26.0,1,1.0
08-06-01_11-27-02_manual.txt,8,0.3628599196550539,0.2621391284116615,0.1316717103490838,3950.0196387621663,199.99052436137973,423.9,10438,1.4886883812853429,0.0979369602202906,0.4169131674957689,0.3843453146428701,0.1502500173920947,0.1642615649721797,0.6934154813033041,0.6526632115884226,0.2530093920654704,8.0,MANUAL,11,39.0,2.0,10.0,2.0,2.0,2.0,34,16,9,9,9,26.0,1,1.0
08-06-01_11-27-02_manual.txt,8,0.2794612226939248,0.2129524910373358,0.0781011783621955,2342.9572496875035,205.8219940783309,420.73333333333335,10517,1.6079837910653534,0.0733873374034725,0.3047043162032571,0.3234393142195921,0.1250143087117611,0.1184499552699519,0.4992437142301742,0.5292516428658175,0.2064810603621094,8.0,MANUAL,11,39.0,2.0,10.0,2.0,2.0,2.0,34,16,9,9,9,26.0,1,1.0
08-06-01_11-27-02_manual.txt,8,0.2790037687992073,0.2123274774184335,0.0778456978607569,2335.2930901248465,203.4856523924964,422.73333333333335,10480,1.6020244865829203,0.0730568766894177,0.301172193388083,0.3238016595335077,0.1230051215986379,0.120156703001478,0.497889246155838,0.5354879687268053,0.2021637587960419,8.0,MANUAL,11,39.0,2.0,10.0,2.0,2.0,2.0,34,16,9,9,9,26.0,1,1.0
08-06-01_11-27-02_manual.txt,8,0.2986566478374446,0.2149142664922998,0.089198766589719,2675.8737989249826,198.79080412255772,426.6333333333333,10579,1.7027141179454917,0.0781712436292834,0.3082017868841948,0.3306878183353474,0.1211014494637831,0.1331756118026244,0.5200873438010207,0.5648230500497837,0.2036812818787509,8.0,MANUAL,11,39.0,2.0,10.0,2.0,2.0,2.0,34,16,9,9,9,26.0,1,1.0
08-06-01_11-27-02_manual.txt,8,0.2631395712724188,0.1899203090545681,0.0692447421275033,2077.273019082972,206.17892602335112,423.7,11112,1.7782172974562376,0.0672644092947429,0.2701389190778124,0.2887952019577527,0.1098164956740696,0.1139404187890894,0.4584854634761904,0.4951406168914901,0.1826928698542872,8.0,MANUAL,11,39.0,2.0,10.0,2.0,2.0,2.0,34,16,9,9,9,26.0,1,1.0
08-06-01_11-27-02_manual.txt,8,0.2380850377267163,0.1584118749056925,0.0566863747351564,1700.5345556799575,209.23749338569905,420.0,12541,1.721425367245592,0.0559452253567274,0.2268197993630451,0.2316805458712351,0.0983071911296878,0.1035925815408955,0.4224315832441887,0.4235645127894376,0.1683220472712112,8.0,MANUAL,11,39.0,2.0,10.0,2.0,2.0,2.0,34,16,9,9,9,26.0,1,1.0
08-06-01_11-13-11_manual.txt,8,0.249180702556698,0.1663710654580126,0.0620930922963928,1862.7306757994888,196.69052405552577,427.3333333333333,10311,1.5834721238757934,0.0607682355473389,0.249846553243378,0.2494210551954875,0.0929448587769574,0.1099428471901396,0.4506223912955744,0.4491688606545621,0.1652358717530534,8.0,MANUAL,9,41.0,1.0,8.0,3.0,3.0,2.0,62,16,9,9,9,26.0,1,1.0
08-06-01_11-13-11_manual.txt,8,0.3284220890000914,0.2396678129452727,0.107864664031985,3235.83205629552,195.28802621542928,427.4333333333333,9817,1.4554278793195448,0.0896601763362572,0.3795350540594803,0.3527723172898684,0.1305542169094384,0.1522407233845372,0.6358430374495277,0.594733864024784,0.2224046071992596,8.0,MANUAL,9,41.0,1.0,8.0,3.0,3.0,2.0,62,16,9,9,9,26.0,1,1.0
08-06-01_11-13-11_manual.txt,8,0.3251077684929621,0.2436082520723506,0.1056985844206207,3170.851834034203,197.59332143335456,424.56666666666666,10163,1.492173737805374,0.0874078087341956,0.3638969992848381,0.3692392606692208,0.1358615022758987,0.1455593361053014,0.6076932441482914,0.6090843584277615,0.2261078086417629,8.0,MANUAL,9,41.0,1.0,8.0,3.0,3.0,2.0,62,16,9,9,9,26.0,1,1.0
08-06-01_11-13-11_manual.txt,8,0.2956646897016513,0.2246894072130687,0.0874205227537988,2622.528262091212,201.08621019109373,423.2,10212,1.5715133966139574,0.0785160014956239,0.3262410825842459,0.3418809602339465,0.1279734023767015,0.1289825817128291,0.5271231730802407,0.5626926604603966,0.2112227261843929,8.0,MANUAL,9,41.0,1.0,8.0,3.0,3.0,2.0,62,16,9,9,9,26.0,1,1.0
08-06-01_11-13-11_manual.txt,8,0.3161911331669382,0.2356785120187305,0.0999801653655712,2999.3049808017727,198.41792110664383,426.3333333333333,10257,1.6320013099153898,0.0827722897302508,0.3447233140454587,0.3594643945165988,0.1313836305771758,0.1359872762233462,0.5806104561918565,0.5998659936685754,0.218826561820069,8.0,MANUAL,9,41.0,1.0,8.0,3.0,3.0,2.0,62,16,9,9,9,26.0,1,1.0
08-06-01_11-13-11_manual.txt,8,0.2913120061559718,0.2108825793295782,0.0848655137810763,2545.8805479185094,203.25958261425023,424.5,10734,1.7567453907377253,0.0773400187002438,0.3078880154690755,0.318455975167745,0.1199784098417644,0.1303447655736422,0.5181554207830021,0.5443462323788133,0.2008184246384311,8.0,MANUAL,9,41.0,1.0,8.0,3.0,3.0,2.0,62,16,9,9,9,26.0,1,1.0
08-06-01_11-13-11_manual.txt,8,0.3121700117019007,0.208264324496003,0.0974533646514532,2923.5034861789445,202.9834382277434,423.6333333333333,11299,1.722404383643881,0.0772338843464727,0.3094410473562385,0.3118978007633543,0.1184694011703081,0.1378707156012072,0.5684401990928443,0.555059431925039,0.2054824127943262,8.0,MANUAL,9,41.0,1.0,8.0,3.0,3.0,2.0,62,16,9,9,9,26.0,1,1.0
08-06-01_10-08-17_manual.txt,8,0.3113257498708898,0.2240146681539867,0.0969269534311196,2907.7116759801565,196.38988650068947,424.6666666666667,10160,1.4053400113616912,0.0827074449523493,0.3595534559618317,0.3269323892227777,0.1278251670728379,0.1377517552343839,0.6149398364979375,0.5553718011196002,0.2165513184891061,8.0,MANUAL,3,42.0,2.0,10.0,4.0,4.0,2.0,72,16,9,9,9,26.0,1,1.0
08-06-01_10-08-17_manual.txt,8,0.329811141758889,0.2458210425219846,0.1087790151954751,3263.26167684906,199.16156826116057,423.4333333333333,10071,1.436494986292782,0.087879840261203,0.3963613514300109,0.3544961809197731,0.1409368553411227,0.1426631974329663,0.6617899951845522,0.5894752882927479,0.2351327079632891,8.0,MANUAL,3,42.0,2.0,10.0,4.0,4.0,2.0,72,16,9,9,9,26.0,1,1.0
08-06-01_10-08-17_manual.txt,8,0.3155423402053011,0.2383946474266426,0.0995702874718204,2987.00905386714,203.46299502593573,421.4666666666666,10308,1.4764148622563371,0.0815129202229897,0.3510967822488787,0.3582131543375823,0.1399692646875227,0.1336201874823676,0.5845169018621627,0.5901983169199497,0.2323827839343372,8.0,MANUAL,3,42.0,2.0,10.0,4.0,4.0,2.0,72,16,9,9,9,26.0,1,1.0
08-06-01_10-08-17_manual.txt,8,0.2960677221848259,0.2267321909008307,0.0876590180869808,2629.682883591337,202.5815033597017,423.4333333333333,10249,1.576444907640362,0.0789313118262626,0.3265560306555537,0.3472200708740351,0.1300830049039002,0.1308465678339074,0.5322265367721414,0.5682499049981449,0.2138944109698079,8.0,MANUAL,3,42.0,2.0,10.0,4.0,4.0,2.0,72,16,9,9,9,26.0,1,1.0
08-06-01_10-08-17_manual.txt,8,0.3315177185661173,0.2482501629536556,0.1099076613119937,3297.119931698501,199.3508800426278,425.1,10152,1.576407153768392,0.0910644265192296,0.3694415914080148,0.3770686902375629,0.1403238163854629,0.1536037055720938,0.6064266998742843,0.6251606172162139,0.2324724909603248,8.0,MANUAL,3,42.0,2.0,10.0,4.0,4.0,2.0,72,16,9,9,9,26.0,1,1.0
08-06-01_10-08-17_manual.txt,8,0.296756798843852,0.2191704292077322,0.0880675332444919,2641.9379298015137,201.48284471160792,424.26666666666665,10561,1.6730595908141963,0.0815607388593574,0.3251433865685453,0.3308174418433582,0.1251444011732091,0.1363097240098538,0.5407728625925434,0.5539320114298368,0.2076313001300227,8.0,MANUAL,3,42.0,2.0,10.0,4.0,4.0,2.0,72,16,9,9,9,26.0,1,1.0
08-06-01_10-08-17_manual.txt,8,0.2345716316882615,0.144069899493743,0.0550256845823795,1650.715511786803,209.8945728976865,418.9,14279,1.6731970136020844,0.0471656570292283,0.1992481945417141,0.2054405667476611,0.0952774066612475,0.0948235721146069,0.3858982954661066,0.4048785333346956,0.1679985932337852,8.0,MANUAL,3,42.0,2.0,10.0,4.0,4.0,2.0,72,16,9,9,9,26.0,1,1.0
08-06-01_10-40-32_manual.txt,8,0.3045458751479255,0.2106342389188225,0.0927512817790084,2782.4457020884747,198.9157936574915,423.8333333333333,10590,1.3950731910225016,0.0714819098533238,0.3337304762715228,0.3067128803400248,0.1217311416048362,0.1247222524369069,0.5795751243080876,0.5345256908956392,0.2106539727523396,8.0,MANUAL,8,40.0,2.0,10.0,4.0,4.0,3.0,55,16,9,9,9,26.0,1,1.0
08-06-01_10-40-32_manual.txt,8,0.3409684901935824,0.2502772505577234,0.1162633867511161,3487.7853391467324,196.6201290235322,426.06666666666666,10087,1.4553709015134937,0.0921696289135034,0.3929864099435859,0.3704548523080784,0.1375780250656078,0.1534330538689995,0.6555273685872116,0.6196755829519934,0.2313966779595958,8.0,MANUAL,8,40.0,2.0,10.0,4.0,4.0,3.0,55,16,9,9,9,26.0,1,1.0
08-06-01_10-40-32_manual.txt,8,0.2302957397124557,0.174444104034801,0.0530378956595624,1591.083831891215,203.01468948633783,423.3666666666667,10275,1.5559419428144396,0.0599187220052715,0.2558740458631067,0.2629557934025472,0.1014788837209501,0.0990221489386438,0.4175739202816327,0.4328375497214253,0.16862046424347,8.0,MANUAL,8,40.0,2.0,10.0,4.0,4.0,3.0,55,16,9,9,9,26.0,1,1.0
08-06-01_10-40-32_manual.txt,8,0.245140204846857,0.1860338352297329,0.0600957232231331,1802.8116009707717,199.9336946934427,424.9666666666666,10144,1.5625976953308416,0.0667251472378838,0.2761515827215514,0.2832005204973889,0.1054863935275273,0.1098001598107176,0.4468073029372056,0.4637832280780964,0.1743381013724326,8.0,MANUAL,8,40.0,2.0,10.0,4.0,4.0,3.0,55,16,9,9,9,26.0,1,1.0
08-06-01_10-40-32_manual.txt,8,0.2639180700614515,0.193531260132626,0.0696550695406126,2089.582431148838,196.4681479070106,428.1,10056,1.6186687983687944,0.0711284790009048,0.2827066939389036,0.2977243714883083,0.1063891470611865,0.1205218584169399,0.4789045082438187,0.4984378594947494,0.179168641571078,8.0,MANUAL,8,40.0,2.0,10.0,4.0,4.0,3.0,55,16,9,9,9,26.0,1,1.0
08-06-01_10-40-32_manual.txt,8,0.2608412936030321,0.1909375681407785,0.068040448463452,2041.1454134550968,195.8712253778941,427.2,10076,1.648662671542412,0.0708220084346237,0.2848790866352811,0.2900659027218731,0.1039396534722103,0.1208129883402047,0.4827815712518054,0.488138060791294,0.1753970533855796,8.0,MANUAL,8,40.0,2.0,10.0,4.0,4.0,3.0,55,16,9,9,9,26.0,1,1.0
08-06-01_10-40-32_manual.txt,8,0.4591048813591353,0.2811935730979891,0.2107843182317267,6323.318762633571,196.75379508942697,423.56666666666666,10436,1.519773861204733,0.1021927829774987,0.4636435590595532,0.4011611924262246,0.1548921580035938,0.1847963001992363,0.9251770555413412,0.7477022207996533,0.2852867010654039,8.0,MANUAL,8,40.0,2.0,10.0,4.0,4.0,3.0,55,16,9,9,9,26.0,1,1.0
08-06-01_11-39-35_manual.txt,8,0.3633851821480725,0.2460627957710078,0.132053192377867,3961.463718143634,195.0458114995555,426.9666666666666,10198,1.4548353421941624,0.0866827489974195,0.3937808191934693,0.3612787884814041,0.138131201808973,0.1566677181681654,0.7085377740866253,0.6361174242061147,0.243582094681209,8.0,MANUAL,13,46.0,3.0,11.0,1.0,2.0,3.0,22,16,9,9,9,26.0,1,1.0
08-06-01_11-39-35_manual.txt,8,0.3896814981671476,0.2864802886060892,0.1518567319048561,4555.5501004137805,197.79187176603867,425.1,9922,1.4420542654946755,0.1030331135886522,0.452973956449044,0.4202870415075327,0.1586330316656385,0.174023987863366,0.7585194235695384,0.7048567173723186,0.2674944767873094,8.0,MANUAL,13,46.0,3.0,11.0,1.0,2.0,3.0,22,16,9,9,9,26.0,1,1.0
08-06-01_11-39-35_manual.txt,8,0.3410820008717451,0.2524146703046975,0.1163408093456513,3490.107939560194,200.21862713949545,423.6666666666667,10090,1.5307458247991093,0.0896734445820588,0.382248465491005,0.3798663809134075,0.1430693962811072,0.1508860346993656,0.6256146568008518,0.6344330064934569,0.2411556294736465,8.0,MANUAL,13,46.0,3.0,11.0,1.0,2.0,3.0,22,16,9,9,9,26.0,1,1.0
08-06-01_11-39-35_manual.txt,8,0.3010387832904266,0.2251348674676655,0.0906273699573123,2718.730471349413,198.90739156567977,425.8,10145,1.6312952834653551,0.0817536114594026,0.322773786978443,0.3480656836534018,0.125236116421293,0.1349097600393536,0.5327895091950512,0.5749172132916239,0.2090776641860572,8.0,MANUAL,13,46.0,3.0,11.0,1.0,2.0,3.0,22,16,9,9,9,26.0,1,1.0
08-06-01_11-39-35_manual.txt,8,0.2824686553184599,0.2055947289246516,0.079791200944117,2393.6562371225677,197.31985377305972,428.73333333333335,10238,1.7093848400571754,0.0700554554571219,0.2916215510534823,0.3205415213870734,0.110654500059563,0.1193474379740161,0.4831610157941376,0.5421723605803918,0.1870808839189418,8.0,MANUAL,13,46.0,3.0,11.0,1.0,2.0,3.0,22,16,9,9,9,26.0,1,1.0
08-06-01_11-39-35_manual.txt,8,0.2577158109376116,0.1849059959778169,0.0664196531956706,1992.523176216924,199.21478084954492,426.6666666666667,10554,1.6884221779570605,0.063235059126056,0.2542314725074189,0.2863588133451724,0.1049686857117431,0.1104525349954212,0.4359761290444593,0.4892206724459475,0.1765409461939525,8.0,MANUAL,13,46.0,3.0,11.0,1.0,2.0,3.0,22,16,9,9,9,26.0,1,1.0
08-06-01_11-39-35_manual.txt,8,0.1799340600773163,0.097894816477632,0.0323773452207479,971.2879792772184,213.0785458165373,413.4333333333333,12730,1.5264593929817454,0.0286019132862658,0.1245101497783734,0.1395633530054712,0.0706296771132434,0.066064782426099,0.2898088332566174,0.2954535138941273,0.1352314821504037,8.0,MANUAL,13,46.0,3.0,11.0,1.0,2.0,3.0,22,16,9,9,9,26.0,1,1.0
08-06-01_11-33-26_manual.txt,8,0.3776759029052896,0.2665630353696111,0.1426438424300734,4279.172629059773,196.79403572064192,425.6,10202,1.4430196462445923,0.0963543555522677,0.4334603274836227,0.3865276577419925,0.1490795060949508,0.1639779898127351,0.7443867705971017,0.6683011440182114,0.2552983933924317,8.0,MANUAL,12,40.0,2.0,10.0,4.0,4.0,2.0,53,16,9,9,9,26.0,1,1.0
08-06-01_11-33-26_manual.txt,8,0.355418808167795,0.2587127441427646,0.1263267400907522,3789.675875982476,198.9078850380349,424.3666666666667,10231,1.4554689641799656,0.09083586192868,0.4060752466064189,0.3778987587612174,0.1481680761388202,0.1551091951765612,0.6973947176936075,0.6373961717487674,0.2488824401076376,8.0,MANUAL,12,40.0,2.0,10.0,4.0,4.0,2.0,53,16,9,9,9,26.0,1,1.0
08-06-01_11-33-26_manual.txt,8,0.2825177285256453,0.2129952347645762,0.0798189275622089,2394.4880079387067,202.8306451799166,420.9333333333333,10360,1.5351170126178313,0.0752428470433142,0.3106818315467842,0.3230385237089917,0.1231228720203188,0.1241252245980785,0.5108140448944871,0.5334948833321814,0.2047043057382052,8.0,MANUAL,12,40.0,2.0,10.0,4.0,4.0,2.0,53,16,9,9,9,26.0,1,1.0
08-06-01_11-33-26_manual.txt,8,0.3095220041365026,0.2363781253399131,0.0958070646134975,2874.116131340314,200.87782099369008,423.7,10220,1.556835827129286,0.0839746040592958,0.3541828967215112,0.3524878955690523,0.1359959046295343,0.1405323525186534,0.5848395034788969,0.5787560763364653,0.2256456322349301,8.0,MANUAL,12,40.0,2.0,10.0,4.0,4.0,2.0,53,16,9,9,9,26.0,1,1.0
08-06-01_11-33-26_manual.txt,8,0.2974586768858824,0.2171877702017389,0.0884846139418312,2654.449933640995,199.23190287428696,425.3333333333333,10083,1.6050197541307467,0.0773412513456017,0.3178877342286553,0.3318229011323365,0.120903595343241,0.1295413004289101,0.528737925267729,0.5616449441580408,0.2061996251290684,8.0,MANUAL,12,40.0,2.0,10.0,4.0,4.0,2.0,53,16,9,9,9,26.0,1,1.0
08-06-01_11-33-26_manual.txt,8,0.2384726334152144,0.1714617221876691,0.0568710925910736,1706.0759066396167,198.70311998173904,426.56666666666666,10506,1.675003506854123,0.0591803615468834,0.244343884405332,0.2637340262704581,0.0947952057403592,0.0999630261808786,0.413858613268924,0.4529751175322124,0.1604629556643374,8.0,MANUAL,12,40.0,2.0,10.0,4.0,4.0,2.0,53,16,9,9,9,26.0,1,1.0
08-06-01_11-33-26_manual.txt,8,0.2557265582230215,0.1587520947671881,0.0653982525223431,1961.882177417772,202.6835296283724,422.7,11505,1.6724125596126564,0.0544395324889349,0.2248067067407339,0.2385566877696351,0.0931085028704073,0.1035026601996025,0.4462015595230474,0.4471952242771012,0.1711387824726904,8.0,MANUAL,12,40.0,2.0,10.0,4.0,4.0,2.0,53,16,9,9,9,26.0,1,1.0
08-06-01_09-51-49_manual.txt,8,0.2839852507264707,0.2037016490010094,0.0806503109738755,2419.428678905292,198.8264596494485,424.4,10128,1.471803136688597,0.0726361988402505,0.3170826338904867,0.3007739860243157,0.1157333740521807,0.1249624472928408,0.5329068243528018,0.5146275360558196,0.1972711487410615,8.0,MANUAL,1,39.0,2.0,8.0,6.0,6.0,1.0,72,16,9,9,9,26.0,1,1.0
08-06-01_09-51-49_manual.txt,8,0.3440709330225379,0.2541365297383183,0.1183887532427745,3551.5442085299933,193.9053033882352,427.56666666666666,9725,1.417042198487258,0.0954028809643441,0.4174585375628505,0.3697952468161406,0.139741511777377,0.1618861715494529,0.702717177104941,0.6159790704841636,0.2350322116850297,8.0,MANUAL,1,39.0,2.0,8.0,6.0,6.0,1.0,72,16,9,9,9,26.0,1,1.0
08-06-01_09-51-49_manual.txt,8,0.3424983988577019,0.255381576099933,0.1173090635222068,3519.154596602684,195.0047299110054,426.2,9829,1.4238435767406017,0.0927567095682079,0.4177158288850773,0.3697514247605585,0.1397900498279297,0.1574305754722437,0.6884503404139636,0.6157664657216356,0.2342543710209609,8.0,MANUAL,1,39.0,2.0,8.0,6.0,6.0,1.0,72,16,9,9,9,26.0,1,1.0
08-06-01_09-51-49_manual.txt,8,0.3278061837728432,0.2459441100632076,0.1074604761355862,3223.706823591452,197.1279285606579,426.26666666666665,9999,1.4742580946757078,0.0871249018465048,0.3814231362680783,0.3655590195212346,0.1378641909559319,0.1455603884867767,0.6220142377366611,0.6030984981789003,0.2300915438319955,8.0,MANUAL,1,39.0,2.0,8.0,6.0,6.0,1.0,72,16,9,9,9,26.0,1,1.0
08-06-01_09-51-49_manual.txt,8,0.2922056932449656,0.2232652401011519,0.0853870133985508,2561.525014943128,199.96833838282072,424.7,10117,1.532848064225902,0.0775510854331305,0.3395463196611389,0.3346822892541562,0.1265631720668017,0.1270557028118202,0.555478561130001,0.5482477758914404,0.2083827233599537,8.0,MANUAL,1,39.0,2.0,8.0,6.0,6.0,1.0,72,16,9,9,9,26.0,1,1.0
08-06-01_09-51-49_manual.txt,8,0.3349015688794871,0.2507247984059558,0.1121627995979284,3364.771825138256,198.75316245539224,424.8333333333333,10042,1.5051354774789956,0.087220691103278,0.3890384901343429,0.3720656355215964,0.140405056541473,0.1456841036125174,0.642109685211278,0.613221101364297,0.2357828383406917,8.0,MANUAL,1,39.0,2.0,8.0,6.0,6.0,1.0,72,16,9,9,9,26.0,1,1.0
08-06-01_09-51-49_manual.txt,8,0.2989533489038582,0.2197154748534881,0.0893760840236327,2681.19314462496,195.8996304249713,427.5,10052,1.615254615949368,0.0802620474163366,0.3287641890403016,0.3344618062583021,0.1207837054445664,0.1327854698794427,0.5577927650425598,0.5602990883093625,0.2035798266050193,8.0,MANUAL,1,39.0,2.0,8.0,6.0,6.0,1.0,72,16,9,9,9,26.0,1,1.0
08-06-01_09-51-49_manual.txt,8,0.2825031355662514,0.2093406391719966,0.0798106819608291,2394.2406481429143,197.1945056123253,427.0333333333333,10149,1.63326968885154,0.078451572847597,0.3171288442780772,0.3154170690439135,0.1156262069447924,0.1322192708746929,0.5357431218802757,0.5263379635782659,0.1927287191844263,8.0,MANUAL,1,39.0,2.0,8.0,6.0,6.0,1.0,72,16,9,9,9,26.0,1,1.0
08-06-01_09-51-49_manual.txt,8,0.2834008990786714,0.2082178020416154,0.0803187468901622,2409.482087957978,198.89674044615845,426.8,10445,1.7036360150892793,0.0746623437445062,0.2963917595031723,0.3182438128120231,0.1170977678365771,0.1281873633453284,0.5046625954302565,0.5406677919788744,0.1957852219078498,8.0,MANUAL,1,39.0,2.0,8.0,6.0,6.0,1.0,72,16,9,9,9,26.0,1,1.0
08-06-01_09-51-49_manual.txt,8,0.2748653430714618,0.2030712840581366,0.0755534752709681,2266.5287046537724,205.7945886628614,423.8333333333333,10798,1.7707713376917988,0.073143006246379,0.2938838605429109,0.3073264593018362,0.1172141595408648,0.1216755408710996,0.4859787860068569,0.5180144379095054,0.1939899627478811,8.0,MANUAL,1,39.0,2.0,8.0,6.0,6.0,1.0,72,16,9,9,9,26.0,1,1.0
08-06-01_09-51-49_manual.txt,8,0.286479850338499,0.2113554591117331,0.0820734404313165,2462.121139499064,207.24050169235247,422.3333333333333,10703,1.7370248780484734,0.0764381457597203,0.3037718871234077,0.3188021129741743,0.123085176598492,0.1277753398315294,0.5162046476196926,0.5399961898254637,0.2048680182201325,8.0,MANUAL,1,39.0,2.0,8.0,6.0,6.0,1.0,72,16,9,9,9,26.0,1,1.0
08-06-01_10-21-01_manual.txt,8,0.3568058097157602,0.252927217412322,0.1273146296679082,3819.311575407579,195.99079336991923,426.6333333333333,10030,1.355584855063405,0.0881151620579006,0.4265803255127581,0.3588375023383292,0.143318063075949,0.1494376149234175,0.735368219495306,0.612268301778762,0.2428275778236349,8.0,MANUAL,5,50.0,2.0,12.0,3.0,2.0,4.0,64,16,9,9,9,26.0,1,1.0
08-06-01_10-21-01_manual.txt,8,0.3176745414245108,0.2311991128519633,0.100920478285216,3027.513428078197,197.53956315823424,424.9333333333333,10197,1.4673380745960989,0.0864103621121364,0.3637722093300437,0.3417652577937956,0.1298413823531579,0.1451195526989301,0.6071506909503064,0.5815475340945845,0.2190950869021662,8.0,MANUAL,5,50.0,2.0,12.0,3.0,2.0,4.0,64,16,9,9,9,26.0,1,1.0
08-06-01_10-21-01_manual.txt,8,0.2871259288656765,0.2110648961376345,0.0824440471618829,2473.238970809326,199.8546756670021,423.8333333333333,10273,1.5298634660316657,0.0765137715846728,0.3183094942725812,0.3184607808929187,0.1207277387513005,0.1275084178265725,0.5334258747646067,0.5296078326360935,0.2031294076346026,8.0,MANUAL,5,50.0,2.0,12.0,3.0,2.0,4.0,64,16,9,9,9,26.0,1,1.0
08-06-01_10-21-01_manual.txt,8,0.2941262935127257,0.2216952168751834,0.0865131603075443,2595.3082960660217,200.92464768764285,424.0,10233,1.5627314738876608,0.0797406252357519,0.3243204583921314,0.335815712072387,0.1262156140939973,0.1326988594790885,0.5298149275507945,0.5578114920917531,0.20948558241429,8.0,MANUAL,5,50.0,2.0,12.0,3.0,2.0,4.0,64,16,9,9,9,26.0,1,1.0
08-06-01_10-21-01_manual.txt,8,0.2991621851544587,0.2232316630219185,0.089500996392937,2684.940390791718,199.21150752249295,424.9333333333333,10232,1.6016409266728848,0.0788449977979177,0.3220742351595254,0.3407583862117368,0.1268329777898763,0.1323757151048946,0.5294826624512498,0.5688523620261082,0.2108637917147031,8.0,MANUAL,5,50.0,2.0,12.0,3.0,2.0,4.0,64,16,9,9,9,26.0,1,1.0
08-06-01_10-21-01_manual.txt,8,0.2933791263657895,0.2148193741974926,0.0860741809265181,2582.139353614617,199.44518455597895,425.8666666666667,10502,1.6887328837528082,0.078670920656203,0.3130614958732361,0.3273920781819744,0.1211115688393598,0.1340019811118461,0.5290858105007743,0.5554691068359633,0.2018948866134139,8.0,MANUAL,5,50.0,2.0,12.0,3.0,2.0,4.0,64,16,9,9,9,26.0,1,1.0
08-06-01_10-21-01_manual.txt,8,0.2652797968161821,0.1882219909022648,0.07037571645605,2111.2011179650463,204.7592096529096,421.6666666666667,10950,1.7061770792355515,0.0669350692699025,0.2792176963780886,0.2811442607259877,0.1095424477731377,0.1171842521919074,0.4796362484170854,0.484822010632895,0.1847040111596475,8.0,MANUAL,5,50.0,2.0,12.0,3.0,2.0,4.0,64,16,9,9,9,26.0,1,1.0
